-0.00749
-0.00749
0.00499
-0.00749
0.00499
0.01374
0.00499
-0.00499
0.01374
-0.00749
-0.00749
-0.00749
0.00499
0.00499
0.01374
-0.00749
-0.00749
0.00499
-0.00749
0.01374
0.00499
-0.00499
0.00499
-0.00749
0.01374
-0.00499
-0.00499
-0.01999
-0.01999
0.01374
-0.0425
0.00499
-0.00499
-0.01999
-0.00749
-0.01999
-0.00749
-0.0425
-0.0425
0.00499
0.00499
0.01374
0.01374
-0.0425
-0.00499
-0.04874
-0.01999
0.01374
0.01374
-0.01999
-0.00499
-0.00499
-0.0425
-0.00499
-0.01999
-0.0425
0.01374
-0.0425
-0.00499
-0.02374
-0.04874
-0.04874
-0.01999
0.00499
-0.01999
0.01624
-0.0425
-0.0425
-0.00749
-0.02374
0.01125
-0.04874
-0.04874
-0.02374
-0.04874
-0.04874
-0.02374
-0.02374
-0.00749
-0.01999
-0.02374
-0.02374
-0.0425
0.00499
-0.04874
0.01624
0.01624
0.01624
-0.02374
0.01125
0.01374
0.01624
0.01125
-0.00499
0.00499
0.01624
0.01374
0.01374
0.01125
-0.00499
-0.04874
-0.00499
0.01624
-0.0175
-0.00499
-0.0175
-0.02374
-0.01999
-0.01999
-0.0425
-0.0175
-0.0225
-0.01999
-0.0175
-0.0425
-0.0225
-0.04874
-0.04874
-0.0225
-0.02374
-0.02374
-0.0425
0.01125
0.01624
0.01624
-0.0175
0.01624
0.01125
0.01125
-0.04874
-0.01999
-0.04874
-0.0225
-0.0425
-0.02374
-0.02374
-0.0225
0.01624
-0.0175
0.01624
0.01125
0.01125
-0.0225
-0.0175
-0.04874
-0.0225
0.01125
-0.02374
0.01125
-0.0175
0.01624
-0.0175
-0.0175
0.01125
-0.0225
-0.0175
-0.0225
0.01125
0.01624
-0.0175
-0.0225
-0.0225
-0.0175
0.01125
-0.0225
-0.0175
-0.0225
-0.0225
-0.02749
-0.01875
-0.01624
-0.05249
-0.06374
-0.04374
-0.02749
-0.02749
-0.01875
-0.02749
-0.01624
-0.01875
-0.05249
-0.06374
-0.04374
-0.01875
-0.02749
-0.01624
-0.02749
-0.01624
-0.05249
-0.01875
-0.05249
-0.06374
-0.02749
-0.01624
-0.02749
-0.01875
-0.05249
-0.01875
-0.02749
-0.02749
-0.01875
-0.06374
-0.01624
-0.01624
-0.04374
-0.04374
-0.05249
-0.01624
-0.02749
-0.02749
-0.06374
-0.02749
-0.01875
-0.00999
-0.02749
-0.02749
-0.01875
-0.05249
-0.02749
-0.00999
-0.06374
-0.01624
-0.02125
-0.02125
-0.01875
-0.05249
-0.02624
-0.02749
-0.06374
-0.01624
-0.01875
-0.04374
-0.01875
-0.05249
-0.05249
-0.06374
-0.06374
-0.04374
-0.04374
-0.02749
-0.02749
-0.00999
-0.00999
-0.02125
-0.00999
-0.02125
-0.02125
-0.02624
-0.04374
-0.02875
-0.01624
-0.02749
-0.01624
-0.02624
-0.06374
-0.02875
-0.00999
-0.01624
-0.02624
-0.04374
-0.01624
-0.02875
-0.02749
-0.01624
-0.00999
-0.05249
-0.02749
-0.02125
-0.06374
-0.00999
-0.01875
-0.02624
-0.02624
-0.01624
-0.05249
-0.02875
-0.05249
-0.06374
-0.01624
-0.02749
-0.02875
-0.05249
-0.01624
-0.06374
-0.06374
-0.04374
-0.04374
-0.02125
-0.04374
-0.02125
-0.02749
-0.01624
-0.02624
-0.04374
-0.02875
-0.02624
-0.04374
-0.02875
-0.00999
-0.01624
-0.02125
-0.02749
-0.01624
-0.00999
-0.02749
-0.00999
-0.02125
-0.02749
-0.02624
-0.00999
-0.00999
-0.02624
-0.02875
-0.02125
-0.02125
-0.02875
-0.01624
-0.02624
-0.02624
-0.01624
-0.02875
-0.02875
-0.01624
-0.01624
-0.02875
-0.01624
-0.02749
-0.00999
-0.02125
-0.02125
-0.02624
-0.02624
-0.02875
-0.02875
-0.01624
-0.01624
0.01125
0.01125
0.01875
0.01875
0.01999
0.02875
0.01125
0.01125
0.05375
0.01875
0.01875
0.09375
0.01999
0.01125
0.02875
0.05375
0.01125
0.11375
0.09375
0.01875
0.01125
0.10249
0.01999
0.01875
0.08375
0.01875
0.02875
0.01125
0.01999
0.01875
0.05375
0.05375
0.01999
0.01999
0.02875
0.03249
0.05375
0.09375
0.02875
0.01999
0.05375
0.01125
0.02875
0.01875
0.05375
0.01999
0.11375
0.09375
0.01125
0.01125
0.01875
0.01875
0.01999
0.02875
0.01999
0.01125
0.02875
0.02875
0.01999
0.01875
0.025
0.02875
0.09375
0.01999
0.02875
0.01125
0.09375
0.05375
0.05375
0.01125
0.05375
0.11375
0.05375
0.09375
0.10249
0.10249
0.09375
0.01875
0.01999
0.09375
0.11375
0.09375
0.01875
0.10249
0.05375
0.01999
0.08375
0.09375
0.02875
0.02875
0.11375
0.05375
0.10249
0.11375
0.08375
0.10249
0.08375
0.08375
0.11375
0.05375
0.05375
0.11375
0.05375
0.05375
0.03249
0.10249
0.02875
0.09375
0.08375
0.05375
0.03249
0.025
0.05375
0.09375
0.03249
0.10249
0.11375
0.05375
0.08375
0.10249
0.09375
0.025
0.05375
0.08375
0.025
0.03249
0.05375
0.025
0.03249
0.025
0.11375
0.03249
0.10249
0.025
0.08375
0.11375
0.11375
0.10249
0.11375
0.08375
0.10249
0.10249
0.05375
0.08375
0.08375
0.08375
0.05375
0.03249
0.05375
0.03249
0.05375
0.025
0.025
0.03249
0.025
0.03249
0.05375
0.03249
0.03249
0.025
0.11375
0.10249
0.08375
0.025
0.025
0.05375
0.03249
0.025
0.06125
0.06125
0.06875
0.06125
0.07874
0.06125
0.06125
0.05624
0.06875
0.02749
0.07874
0.06125
-0.00124
0.06875
0.06125
0.06125
0.06875
0.06875
0.07874
0.06875
0.06875
0.00499
0.05624
0.07874
0.02749
0.05624
0.02374
-0.00124
0.02749
0.01999
-0.00124
0.00875
0.06125
0.00499
0.06875
0.00499
0.02374
0.07874
0.02374
0.01999
0.01374
0.05624
0.01999
0.00875
0.07874
0.01999
0.01374
0.05624
0.06125
0.01999
0.00875
0.02749
0.06875
0.01374
0.07874
0.05624
0.07874
0.06875
0.06125
0.02749
0.05624
0.07874
-0.00124
0.01999
0.07874
0.05624
0.02749
0.06125
0.05624
-0.00124
-0.00124
0.02749
0.06125
0.02749
0.06875
0.05624
-0.00124
0.07874
0.02749
-0.00124
0.02749
0.06875
-0.00124
0.00499
0.00499
-0.00124
0.02374
0.00499
0.07874
0.00499
0.02374
0.02374
0.05624
0.00499
0.06125
0.01999
0.02749
0.06875
0.02374
0.02374
0.07874
0.01999
0.01999
0.05624
0.01999
0.02749
-0.00124
0.00499
0.00875
-0.00124
0.00499
0.01999
0.00875
0.02374
0.01374
0.00499
0.01999
0.00499
0.01999
0.00875
0.02374
0.01374
0.01374
0.00875
0.01999
0.01999
0.01374
0.00875
0.01999
0.00875
0.01374
0.01999
0.06875
0.05624
0.07874
0.02749
0.02374
0.05624
0.02374
0.02749
0.01999
0.01999
-0.00124
0.00875
0.01374
0.01999
0.01374
0.00499
-0.00124
0.02374
0.00875
0.01999
0.01374
0.00875
0.00499
0.01999
0.01374
0.01999
0.01999
0.02374
0.00875
0.01999
0.01999
0.00875
0.01374
0.01374
0.01999
0.01999
0.02875
0.02875
0.02875
0.03249
0.03249
0.03125
0.03125
0.03875
0.03875
0.05874
0.03249
0.05874
0.06499
0.03125
0.03875
0.06499
0.05874
0.06499
0.02875
0.03249
0.03125
0.02875
0.03875
0.03249
0.05874
0.02875
0.02875
0.03249
0.02875
0.02875
0.03249
0.03249
0.03249
0.03125
0.03125
0.03125
0.03875
0.03875
0.03875
0.05874
0.06499
0.03125
0.06499
0.03875
0.02875
0.05874
0.02875
0.03249
0.06499
0.03125
0.03875
0.02875
0.05874
0.06499
0.05999
0.03249
0.06624
0.03125
0.075
0.03875
0.05999
0.05874
0.02875
0.05999
0.06624
0.03249
0.05999
0.075
0.05874
0.05999
0.03249
0.06499
0.07
0.03125
0.08624
0.03875
0.09749
0.05999
0.06624
0.075
0.06624
0.07
0.05999
0.075
0.08624
0.06624
0.09749
0.06624
0.075
0.075
0.05874
0.07
0.07
0.06499
0.08624
0.08624
0.09749
0.06624
0.075
0.07
0.05999
0.07
0.08624
0.08624
0.06499
0.09749
0.09749
0.03125
0.06624
0.03875
0.075
0.05874
0.07
0.06499
0.08624
0.09749
0.05999
0.06624
0.09749
0.05999
0.02875
0.05874
0.03249
0.06499
0.07
0.03125
0.05999
0.03875
0.06624
0.05874
0.05999
0.06499
0.06624
0.075
0.07
0.08624
0.09749
0.05999
0.03125
0.03875
0.075
0.06624
0.06624
0.05874
0.075
0.07
0.06499
0.075
0.08624
0.07
0.09749
0.08624
0.075
0.09749
0.07
0.07
0.08624
0.05999
0.08624
0.06624
0.09749
0.075
0.09749
0.07
0.08624
0.09749
0.08624
0.09749
0.13375
0.16374
0.15125
0.13375
0.16374
0.13375
0.15125
0.16374
0.15625
0.11749
0.13375
0.13375
0.16374
0.16374
0.15125
0.15625
0.13375
0.15625
0.13375
0.16374
0.15125
0.15125
0.13375
0.15625
0.16374
0.11749
0.15125
0.15125
0.13375
0.05624
0.15625
0.16374
0.11749
0.05624
0.15625
0.11749
0.05624
0.13375
0.16374
0.15125
0.13375
0.15625
0.11749
0.11749
0.05624
0.16374
0.05624
0.15125
0.15625
0.11749
0.01875
0.01875
0.00249
0.05624
0.00249
-0.01125
0.16374
0.15125
0.15625
0.01875
0.11749
0.05624
0.15125
0.00249
0.15625
-0.01125
0.11749
-0.03375
0.05624
0.01875
-0.03375
0.00249
0.
-0.01125
0.01875
-0.03375
0.00249
0.05624
-0.03375
-0.01125
-0.03375
0.01875
-0.03375
0.
0.00249
0.01875
0.00249
0.13375
-0.01125
0.
0.16374
-0.03375
0.15125
0.11749
-0.03375
0.01875
0.15625
0.
0.00249
0.11749
0.05624
0.13375
-0.03375
0.15625
0.13375
-0.01125
0.16374
-0.01125
0.16374
-0.03375
0.15125
0.15125
-0.03375
0.15625
0.15625
0.
0.11749
-0.03375
0.11749
0.05624
0.05624
0.11749
0.05624
0.01875
0.01875
0.00249
0.00249
0.05624
-0.01125
-0.01125
-0.03375
-0.03375
-0.03375
0.
0.01875
-0.03375
0.00249
-0.01125
0.
0.01875
-0.01125
0.01875
-0.03375
0.00249
-0.03375
0.00249
-0.01125
0.
-0.03375
0.01875
-0.01125
-0.03375
-0.03375
0.
-0.03375
0.
-0.03375
0.00249
-0.03375
0.
-0.03375
0.
-0.01125
-0.03375
-0.03375
0.
-0.03375
0.
0.01499
-0.00999
0.01499
-0.03875
-0.0625
0.01499
-0.05249
-0.00999
-0.01875
-0.03875
-0.0625
-0.05249
-0.01875
0.01499
-0.00999
-0.00999
-0.03875
-0.03875
0.01499
0.01499
-0.0625
-0.05249
-0.01875
0.01499
0.01499
-0.00999
-0.00999
-0.00999
-0.03875
-0.03875
-0.0625
-0.03875
-0.0625
-0.05249
-0.05249
0.01499
-0.01875
-0.00999
-0.03875
-0.0625
0.01499
-0.0625
-0.00999
-0.05249
0.01499
-0.01875
0.01499
-0.00999
-0.00999
-0.03875
-0.03875
-0.0625
-0.0625
-0.05249
0.01499
-0.05249
-0.00999
-0.01875
-0.00999
0.01499
-0.03875
-0.03875
-0.05249
-0.0625
-0.0625
-0.01875
-0.01875
-0.05249
-0.00999
-0.03875
-0.0625
-0.0625
-0.05249
-0.05249
-0.01875
-0.01875
-0.05249
-0.01875
-0.01875
-0.03875
-0.0625
-0.01875
-0.05249
-0.01875
-0.00249
-0.00249
0.00999
-0.00249
0.00999
-0.00249
-0.00249
0.00999
0.
-0.00249
0.
0.01624
0.01624
0.
0.00124
0.00124
-0.00249
0.00999
-0.00249
0.00249
-0.02125
-0.00249
-0.00625
0.00999
0.04374
0.07874
-0.00249
0.085
-0.00249
0.00999
-0.00249
0.00999
-0.00249
-0.00249
-0.00249
0.00999
0.01624
-0.00249
-0.00249
0.00999
0.
-0.00249
0.01624
0.00124
0.
0.
-0.00249
0.01624
0.00124
0.
0.00249
0.01624
-0.02125
0.00124
-0.00625
0.00249
-0.00249
-0.02125
-0.00625
0.00999
-0.00249
0.04374
0.00249
0.
0.07874
0.01624
0.085
0.00124
0.
0.00249
0.00124
-0.02125
0.
-0.00625
0.00249
0.01624
0.04374
-0.02125
0.00249
-0.00249
0.07874
-0.00625
-0.02125
0.085
0.04374
-0.00249
-0.00625
-0.00249
0.00999
0.04374
0.00999
0.01624
0.07874
0.00124
0.04374
0.085
0.07874
-0.02125
0.01624
0.085
0.00999
0.00124
-0.00249
-0.00625
0.
0.00124
0.04374
0.00249
0.07874
0.085
-0.02125
-0.00625
0.00999
0.01624
-0.00249
-0.00249
0.00124
0.04374
0.00249
0.
0.07874
0.01624
0.085
0.00249
0.
-0.00249
0.01624
0.07874
0.
0.00124
0.085
0.00249
0.00249
0.00124
-0.02125
-0.02125
-0.00625
0.00249
-0.02125
0.01624
-0.02125
0.00124
-0.00625
0.04374
0.07874
0.085
-0.00625
0.00249
-0.02125
-0.00625
-0.02125
0.04374
-0.00625
0.07874
0.085
0.04374
0.04374
-0.00625
0.07874
0.04374
0.07874
0.085
0.07874
0.085
0.085
0.04374
0.07874
0.085
0.04374
0.04374
-0.0125
-0.05499
-0.0125
-0.0775
-0.05375
-0.05499
-0.03375
-0.0775
-0.05375
0.04374
0.04374
-0.03375
-0.0125
-0.0125
-0.05499
-0.05499
-0.0775
-0.0775
0.04374
0.04374
0.04374
0.04374
-0.0125
-0.0125
-0.05499
-0.05499
-0.0775
-0.05375
-0.0775
-0.03375
-0.05375
-0.03375
-0.02374
-0.01875
0.00999
0.02875
0.02999
-0.02374
-0.00249
-0.01875
-0.05375
-0.03375
0.04374
-0.0125
0.04374
0.04374
-0.05375
-0.02374
-0.0125
-0.03375
-0.01875
0.00999
-0.02374
0.02875
-0.01875
0.02999
0.04374
-0.00249
-0.0125
-0.02374
-0.05499
-0.01875
-0.0125
-0.0125
0.00999
-0.05499
-0.05499
0.00999
-0.0775
0.04374
-0.0775
-0.05375
-0.0125
-0.05375
-0.03375
-0.05499
-0.03375
-0.0775
-0.05375
-0.02374
-0.03375
-0.01875
0.00999
-0.02374
0.02875
-0.02374
-0.01875
-0.01875
0.02999
0.00999
0.00999
-0.00249
0.02875
0.02875
0.02999
0.02999
-0.0775
-0.00249
-0.05375
-0.00249
-0.03375
-0.0125
0.02875
-0.05499
0.02999
-0.0775
-0.05499
-0.02374
-0.00249
-0.05375
-0.0775
-0.03375
-0.05375
0.04374
0.02875
-0.03375
-0.0125
0.02999
-0.01875
-0.00249
-0.02374
0.00999
-0.01875
0.00999
0.02875
0.02875
0.02999
-0.02374
0.02999
-0.05499
-0.0775
-0.01875
-0.00249
-0.05375
0.00999
-0.02374
-0.00249
-0.01875
0.02875
0.00999
-0.03375
0.00999
0.02875
0.02875
0.02999
-0.05499
0.02999
-0.00249
-0.00249
-0.0775
-0.02374
0.02999
-0.01875
-0.00249
0.00999
0.02875
0.02999
-0.00249
-0.05375
-0.03375
-0.02374
-0.01875
0.00999
0.02875
0.02999
-0.00249
-0.0225
-0.0225
-0.02999
-0.02999
-0.0425
-0.0425
-0.02749
-0.02749
0.0225
0.0225
0.04874
-0.0225
-0.02999
-0.0225
-0.02999
-0.0425
-0.0225
-0.02749
-0.02999
0.0225
-0.0425
-0.02749
0.0225
0.04874
-0.0225
-0.02999
-0.0425
0.02749
0.04874
0.00374
-0.01499
-0.0225
-0.02875
-0.02999
-0.04125
-0.0425
-0.02749
0.0225
-0.0225
-0.0225
0.04874
-0.02999
-0.02999
-0.0425
-0.0425
-0.02749
-0.02749
0.02749
0.00374
0.0225
0.0225
0.04874
0.04874
-0.01499
-0.02875
-0.04125
0.02749
-0.02374
0.00374
0.02749
-0.01499
0.00374
-0.02875
-0.01499
-0.0225
-0.04125
-0.02999
-0.02875
-0.02374
-0.0425
-0.04125
-0.02749
-0.02374
-0.0225
0.0225
-0.02999
0.04874
-0.0425
-0.02749
-0.0425
-0.0225
-0.0225
-0.02749
-0.02374
0.02749
-0.02999
-0.02749
-0.0425
0.0225
0.0225
-0.02749
0.04874
0.04874
0.0225
0.0225
0.04874
0.00374
0.02749
0.02749
0.00374
0.04874
0.00374
-0.01499
-0.0225
-0.02999
-0.02875
-0.01499
-0.0425
-0.02875
-0.04125
-0.04125
-0.02374
-0.02374
0.02749
0.00374
0.04874
-0.01499
-0.01499
0.02749
0.02749
-0.02999
0.02749
-0.02749
0.00374
0.00374
0.0225
-0.01499
-0.02875
0.00374
0.02749
-0.0425
0.00374
-0.02749
-0.01499
-0.04125
-0.02875
-0.01499
-0.04125
-0.01499
-0.02875
-0.02374
-0.04125
-0.02374
-0.02875
-0.04125
-0.02374
-0.02875
0.04874
0.0225
-0.04125
-0.02374
-0.02374
-0.02875
0.02749
0.04874
0.00374
-0.01499
0.02749
-0.02875
-0.04125
-0.04125
0.00374
-0.02374
-0.02374
-0.01499
-0.02875
-0.04125
-0.02374
0.
0.00999
0.
0.
0.00999
0.00625
0.
0.00625
0.00999
0.00625
0.00999
0.00625
0.0175
0.0175
0.0175
-0.01374
0.0175
-0.01374
0.
0.00999
0.0175
0.0175
0.0175
0.
0.
0.00999
0.00999
0.00625
0.00625
0.0175
0.
0.0175
0.0175
0.00999
0.0175
-0.01374
0.00625
-0.01374
0.0175
0.0175
0.00625
-0.01374
0.0175
-0.01875
0.0175
-0.0125
-0.01875
-0.01374
-0.0125
0.00124
0.00124
0.035
-0.01875
0.035
0.06125
-0.0125
0.06125
0.07374
0.00124
0.0175
-0.01374
0.035
0.
0.06125
-0.01374
0.
0.00999
0.07374
0.
0.00625
0.0175
0.0175
-0.01374
-0.01875
-0.0125
-0.01875
0.00124
-0.0125
0.00124
0.07374
0.
0.00999
0.00625
-0.01875
0.00999
0.0175
0.00625
0.0175
-0.01875
-0.01374
0.035
-0.01875
-0.0125
-0.0125
0.06125
0.00124
0.00124
0.07374
-0.01875
0.035
0.
-0.0125
0.06125
-0.0125
0.07374
0.00124
0.00124
0.035
0.06125
0.0175
0.035
0.07374
0.0175
0.06125
-0.01374
0.00999
0.035
0.00999
0.00625
0.07374
0.00625
0.0175
0.
0.0175
0.0175
0.06125
0.0175
0.07374
-0.01875
-0.0125
0.00999
-0.01875
0.00625
-0.0125
0.00124
-0.01374
0.00124
0.035
-0.01374
0.035
0.06125
0.06125
0.07374
0.07374
-0.01875
-0.0125
0.00124
0.035
0.06125
0.07374
-0.01875
-0.0125
0.00124
0.035
0.06125
0.07374
0.035
0.0175
0.06125
0.0175
0.07374
-0.01374
-0.01875
-0.0125
0.00124
0.035
0.06125
0.07374
0.06875
0.06875
0.0825
0.06875
0.08124
0.03999
0.0825
0.0225
0.08124
0.03999
0.06875
0.0825
0.0825
0.01875
0.06875
0.0175
0.0825
0.08124
0.0225
0.08124
0.03999
0.01875
0.0225
0.03999
0.0225
0.06875
0.01875
0.0825
0.06875
0.08124
0.0825
0.08124
0.03999
0.08124
0.0175
0.03999
0.0225
0.02374
0.0225
0.00625
0.01875
0.06875
0.06875
0.0825
0.06875
0.0825
0.08124
0.02374
0.06875
0.08124
0.0175
0.02374
0.03999
0.03999
0.00625
0.0225
0.0225
0.01875
0.03999
-0.03375
0.0225
0.01875
0.06875
0.06875
0.0825
0.0825
0.08124
0.08124
0.03999
0.01875
0.0225
0.0175
0.03999
0.01875
0.02374
0.0225
0.00625
0.01875
-0.03375
0.0175
-0.02875
0.02374
0.00625
0.0175
-0.03375
0.02374
0.0175
-0.02875
0.00625
0.02374
0.00124
0.00625
-0.03375
0.0825
-0.02875
0.08124
0.00124
0.01875
0.0825
0.00625
0.08124
-0.03375
0.03999
0.0225
0.01875
0.06875
0.0825
0.0175
0.08124
0.02374
0.0175
0.03999
0.00625
0.02374
0.0225
-0.03375
-0.02875
-0.03375
0.03999
0.01875
-0.02875
0.01875
0.00124
0.0225
0.00124
0.01875
-0.03375
0.0175
-0.02875
0.02374
-0.02875
0.00124
0.00625
0.00124
0.0175
0.00625
0.02374
0.00625
0.0175
-0.02875
0.02374
-0.03375
-0.03375
0.00124
-0.02875
0.00124
0.0175
-0.03375
0.00124
0.02374
-0.02875
-0.02875
0.00625
0.00124
0.00124
-0.03375
0.00625
-0.02875
-0.03375
0.00124
-0.02875
0.00124
0.0175
0.02374
0.00625
-0.03375
-0.02875
0.00124
0.01374
-0.01499
-0.02749
0.01374
0.
-0.01499
0.01374
-0.02749
-0.01499
0.03999
0.
-0.02749
0.05499
0.03999
0.
0.05499
0.03999
0.05499
0.01374
0.01374
-0.01499
0.01374
-0.01499
0.01374
-0.01499
-0.01499
-0.02749
-0.02749
-0.02749
0.
0.
0.03999
0.03999
0.05499
0.01374
-0.01499
0.01374
-0.02749
0.01374
-0.01499
0.
0.01374
-0.01499
-0.02749
-0.01499
0.
0.01374
0.03999
0.01374
0.05499
-0.01499
-0.02749
0.03125
0.
-0.00124
0.03999
0.03125
0.05499
-0.00124
-0.025
0.
-0.02749
0.05499
-0.00625
0.01374
0.
0.02624
0.03999
0.035
0.05499
0.03125
0.03999
-0.02749
-0.00124
-0.02749
0.
0.
0.03999
-0.01499
0.03125
-0.02749
-0.00124
0.03125
0.
-0.00124
-0.025
0.03999
0.03125
-0.00625
0.03999
-0.025
0.05499
0.02624
0.05499
-0.00625
0.035
0.02624
-0.01499
-0.02749
0.03125
0.
0.05499
0.03125
0.03999
-0.00124
0.05499
-0.025
-0.025
0.05499
-0.00124
-0.00625
0.03125
0.02624
-0.00124
0.03999
0.035
0.03125
0.03125
-0.00625
-0.00124
-0.00124
0.035
0.02624
-0.025
-0.00625
0.035
0.02624
0.03125
-0.00124
-0.00124
0.05499
-0.025
-0.025
-0.025
-0.025
-0.00625
-0.00625
-0.00625
-0.00625
0.02624
-0.025
0.035
0.03125
-0.00625
-0.00124
0.035
0.02624
-0.025
0.035
0.02624
0.02624
0.035
0.035
-0.00625
0.03125
-0.025
0.02624
0.02624
-0.00625
0.035
0.02624
0.035
-0.00124
0.035
-0.025
-0.00625
0.02624
0.035
0.03249
0.03249
0.01374
0.01374
0.00499
0.00499
-0.00999
0.03249
0.01374
0.00499
-0.00999
-0.01624
0.03249
0.01125
0.01374
0.03249
0.00499
-0.00999
0.03249
0.03249
0.01374
-0.01624
-0.01624
-0.00999
0.01125
0.01125
-0.01624
0.01374
0.01374
0.03249
0.01374
0.03249
0.07
0.00499
0.01374
-0.00999
0.00499
0.03249
-0.01624
0.01374
-0.00999
0.00499
0.00499
-0.01624
0.01125
0.03249
-0.00999
0.07
0.01374
-0.01624
0.06624
0.00499
0.00499
0.01125
0.05499
-0.00999
-0.00999
0.01125
0.01624
-0.01624
0.07
0.00499
0.01125
0.06624
0.01125
-0.00999
0.07
0.03249
-0.01624
0.01374
0.01125
0.00499
0.07
0.07
0.06624
-0.00999
0.06624
0.05499
-0.01624
0.05499
0.01624
0.07
0.01125
0.06624
0.03249
0.03249
-0.01624
0.01374
0.01125
0.00499
0.05499
0.01624
0.06624
0.07
-0.05249
0.06624
-0.07874
0.05499
0.05499
0.06624
0.01624
0.01624
0.01624
-0.00999
-0.00999
-0.01624
0.07
-0.01624
0.06624
0.05499
0.01624
0.01125
0.05499
0.01624
-0.05249
-0.07874
0.07
0.06624
0.01374
0.07
0.00499
0.06624
-0.00999
0.05499
-0.05249
-0.07874
0.01624
-0.05249
-0.05249
-0.07874
-0.07874
-0.05249
0.07
0.06624
0.05499
0.05499
0.05499
0.01624
-0.05249
-0.05249
-0.05249
-0.07874
-0.07874
-0.07874
-0.05249
0.01125
0.01624
0.01624
-0.07874
-0.07874
-0.05249
-0.05249
-0.07874
0.07
-0.01624
0.06624
-0.07874
0.05499
0.01125
0.01624
-0.05249
-0.07874
0.07
0.06624
0.05499
0.01624
-0.05249
-0.07874
-0.09
-0.09
-0.09
-0.09
-0.09
-0.0825
-0.09
-0.0825
-0.0825
-0.0825
-0.05999
-0.05999
-0.0825
-0.05999
-0.06875
-0.06875
-0.09624
-0.09624
-0.09
-0.09
-0.0825
-0.0825
-0.0825
-0.05999
-0.05999
-0.05999
-0.06875
-0.09
-0.06875
-0.09
-0.09624
-0.0825
-0.09624
-0.0825
-0.07625
-0.05999
-0.07625
-0.09
-0.06875
-0.09
-0.05999
-0.09624
-0.05999
-0.07625
-0.0825
-0.06875
-0.07625
-0.09
-0.09624
-0.0825
-0.05999
-0.05999
-0.06875
-0.06875
-0.07999
-0.09624
-0.09624
-0.06624
-0.07625
-0.07625
-0.04749
-0.0825
-0.05249
-0.05999
-0.03375
-0.07625
-0.06875
-0.06875
-0.05999
-0.06875
-0.07999
-0.025
-0.09624
-0.07999
-0.07625
-0.09624
-0.06875
-0.07999
-0.07625
-0.07999
-0.09624
-0.06624
-0.06624
-0.04749
-0.07625
-0.05249
-0.04749
-0.03375
-0.07999
-0.05249
-0.025
-0.09624
-0.07999
-0.06624
-0.07625
-0.06624
-0.04749
-0.07625
-0.04749
-0.09
-0.05249
-0.0825
-0.03375
-0.07999
-0.06624
-0.06624
-0.05249
-0.04749
-0.04749
-0.03375
-0.05249
-0.03375
-0.05999
-0.025
-0.07999
-0.06624
-0.07999
-0.07999
-0.025
-0.04749
-0.05249
-0.07999
-0.05249
-0.03375
-0.06875
-0.025
-0.025
-0.06624
-0.06875
-0.06624
-0.03375
-0.06624
-0.03375
-0.025
-0.09624
-0.04749
-0.06624
-0.07625
-0.05249
-0.04749
-0.03375
-0.05249
-0.025
-0.03375
-0.07999
-0.025
-0.025
-0.09624
-0.06624
-0.07625
-0.04749
-0.04749
-0.05249
-0.05249
-0.03375
-0.07999
-0.03375
-0.06624
-0.04749
-0.025
-0.025
-0.05249
-0.03375
-0.04749
-0.025
-0.05249
-0.03375
-0.025
0.02125
0.02125
0.02125
0.02125
0.05624
0.05624
0.0375
0.02125
0.0375
-0.00749
0.05624
-0.00749
-0.03249
0.0375
-0.05124
-0.00749
-0.03249
-0.03249
-0.05124
-0.05124
0.05624
0.0375
0.05624
-0.0675
-0.0675
0.02125
-0.06125
0.02125
0.0375
0.05624
-0.04374
-0.00749
-0.06125
-0.05499
0.02125
-0.04374
-0.05375
-0.03249
0.05624
-0.05499
-0.05124
0.0375
-0.05375
0.05624
-0.00749
-0.0675
0.0375
0.0375
-0.00749
-0.03249
-0.05124
0.02125
-0.03249
0.05624
0.02125
-0.045
0.05624
0.02125
-0.0675
0.05624
-0.06125
0.0375
0.0375
-0.00749
0.0375
-0.00749
-0.03249
-0.045
0.02125
0.02125
-0.06125
0.05624
-0.05124
0.0375
-0.00749
-0.00749
-0.03249
-0.03249
-0.00749
-0.00749
-0.0675
-0.05124
-0.03249
-0.06125
-0.05124
-0.05124
-0.0675
-0.04374
-0.06125
-0.0675
-0.05499
-0.04374
-0.05375
-0.06125
-0.05124
-0.04374
-0.04374
-0.05499
-0.05375
-0.0675
-0.045
-0.06125
-0.05499
-0.03249
-0.05375
-0.05124
-0.04374
-0.04374
0.02125
-0.05499
-0.045
-0.03249
-0.05375
0.05624
-0.05124
-0.0675
-0.0675
0.0375
0.05624
-0.06125
-0.06125
0.0375
-0.0675
-0.04374
-0.00749
-0.05499
-0.03249
-0.05375
-0.05124
-0.045
-0.045
-0.05499
-0.05499
-0.05375
-0.05375
-0.045
-0.045
-0.0675
-0.045
-0.06125
-0.04374
-0.05499
-0.05375
-0.045
-0.00749
-0.0675
-0.04374
-0.03249
-0.06125
-0.05499
-0.05124
-0.04374
-0.05375
-0.05499
-0.045
-0.05375
-0.045
-0.0675
-0.06125
-0.06125
-0.04374
-0.05499
-0.04374
-0.05499
-0.05375
-0.045
-0.05375
-0.045
-0.01499
0.00499
0.00249
-0.01499
0.045
-0.01499
0.00499
-0.01499
-0.01499
0.00249
0.00499
0.00499
0.045
0.00249
0.05999
0.00249
0.00499
0.0625
0.00249
0.045
0.045
0.05999
0.05999
0.03999
0.0625
0.0625
-0.01499
-0.01499
0.00499
0.03999
0.02624
0.03999
0.02875
-0.01499
0.02624
-0.01499
0.05999
0.00499
0.045
0.00499
0.05999
0.00499
0.00249
0.0625
0.00249
-0.01499
0.045
0.00499
0.05999
-0.01499
0.0625
0.00249
0.00249
-0.01499
0.02624
0.02875
0.02875
-0.00124
0.0625
-0.00124
-0.00749
-0.00749
0.01125
0.03999
0.01125
0.02624
0.02875
0.00499
-0.00124
-0.01499
0.00249
-0.00749
0.00249
0.045
0.045
0.045
0.05999
0.05999
0.0625
0.045
0.05999
0.0625
0.03999
0.02624
0.02875
0.03999
-0.00124
0.02624
-0.00749
0.02875
-0.00124
0.01125
-0.00749
0.01125
0.045
0.05999
0.0625
0.0625
0.03999
-0.00124
0.00499
0.00499
0.03999
0.00249
0.01125
0.02624
0.02875
0.045
-0.00124
0.03999
0.05999
0.03999
0.02624
0.02624
0.0625
0.02875
0.02624
-0.00749
0.02875
0.01125
-0.00124
0.03999
-0.00749
-0.00749
0.00249
0.02875
-0.01499
-0.00124
0.00499
0.045
-0.00124
0.05999
-0.00749
-0.00749
0.02624
0.02875
0.05999
0.01125
0.01125
0.0625
0.0625
0.01125
0.00249
0.01125
0.03999
0.03999
0.02624
0.02624
0.02875
0.02875
-0.00124
-0.00124
-0.00749
-0.00749
0.01125
0.01125
-0.00124
-0.00749
0.01125
0.045
0.05999
0.0625
0.03999
0.02624
0.02875
-0.00124
-0.00749
0.01125
0.03125
0.03125
0.02999
0.03125
0.02999
0.04125
0.02999
0.04125
0.01875
0.04125
0.01875
0.025
0.01875
0.025
0.025
0.0375
0.0375
0.0375
0.03125
0.03125
0.03125
0.02999
0.02999
0.02999
0.04125
0.04125
0.04125
0.01875
0.01875
0.01875
0.025
0.025
0.025
0.0375
0.0375
0.0375
0.03125
0.03125
0.02999
0.02999
0.04125
0.04125
0.01875
0.01875
0.025
0.025
0.0375
0.06875
0.0375
0.06374
0.07
0.03125
0.06875
0.02999
0.06374
0.04125
0.07
0.01875
0.07374
0.06875
0.09
0.06374
0.06499
0.07
0.025
0.07374
0.0375
0.03125
0.03125
0.02999
0.02999
0.04125
0.06875
0.04125
0.01875
0.06875
0.01875
0.03125
0.07374
0.06875
0.09
0.06875
0.06499
0.06374
0.06374
0.025
0.07
0.07374
0.07
0.09
0.07374
0.0375
0.06499
0.06374
0.09
0.07
0.06499
0.03125
0.02999
0.03125
0.04125
0.01875
0.02999
0.025
0.0375
0.04125
0.01875
0.07374
0.025
0.06875
0.0375
0.06374
0.07
0.07374
0.09
0.06499
0.06875
0.09
0.06499
0.025
0.02999
0.06374
0.04125
0.06875
0.07
0.01875
0.07374
0.025
0.06875
0.0375
0.09
0.06374
0.06499
0.07
0.06875
0.09
0.0375
0.06875
0.06499
0.06374
0.07
0.07374
0.09
0.06875
0.06499
0.06374
0.07
0.07374
0.09
0.06499
0.06374
0.07
0.07374
0.09
0.06499
0.06374
0.07374
0.06374
0.07
0.09
0.07
0.07374
0.07374
0.06499
0.09
0.09
0.06499
0.06499
0.03999
0.03999
0.04125
0.04125
0.05499
0.05499
0.02125
0.02125
0.00999
0.00999
0.0175
0.03999
0.0175
0.04125
0.03999
0.05499
0.03999
0.04125
0.03999
0.04125
0.05499
0.03999
0.02125
0.03999
0.03999
0.00999
0.04125
0.04125
0.05499
0.0175
0.05499
0.02125
0.0425
0.04125
0.03999
0.05375
0.00999
0.0375
0.0175
0.03999
0.03999
0.04125
0.03999
0.04125
0.04125
0.04125
0.05499
0.05499
0.02125
0.05499
0.02125
0.00999
0.02125
0.02125
0.00999
0.00999
0.0175
0.05499
0.0175
-0.00249
0.02125
0.0425
0.00999
0.00499
0.05499
0.03999
0.0175
0.02125
0.02125
0.01125
0.00999
0.04125
0.05499
0.0425
0.0175
0.00999
0.0425
0.0175
0.05375
0.0375
0.0425
-0.00249
0.00499
0.05375
0.0375
-0.00249
0.01125
0.0125
0.01875
0.02374
0.0125
0.0125
0.03249
0.01875
0.0425
0.02374
0.0125
0.03999
0.01875
0.0125
0.02374
0.03249
0.03249
0.01875
0.0425
0.0425
0.01875
0.0125
0.02374
0.01875
0.0125
0.02374
0.03999
0.01875
0.0125
0.0125
0.01875
0.03999
0.02374
0.03249
0.0125
0.01374
0.03249
0.0125
0.03249
0.0425
0.01875
0.02374
0.0125
0.02374
0.02374
0.01374
0.01374
0.0425
0.0125
0.0225
0.03999
0.0125
0.0425
0.03249
0.03999
0.03249
0.0425
0.0225
0.03999
-0.00249
-0.00249
0.01875
0.01374
0.02374
0.0225
0.03249
0.03249
-0.00249
0.01875
0.0425
0.01374
-0.02374
0.0425
0.01875
0.03999
0.01875
-0.02374
0.0425
0.02374
0.02374
0.03999
0.03249
-0.02374
-0.025
0.0225
-0.025
-0.00249
0.03249
0.01374
0.0225
0.01875
0.0225
-0.00249
0.03999
0.03999
-0.02374
-0.00249
0.02374
0.03249
0.01374
0.01374
-0.025
-0.025
0.01374
-0.00249
0.0425
0.0225
0.0425
-0.02374
-0.00249
-0.00249
0.03999
-0.02374
-0.00249
0.0225
0.02374
-0.00249
0.0225
-0.00249
0.03999
0.01374
-0.00249
0.0225
-0.02374
0.03249
-0.025
-0.025
-0.025
-0.00249
0.0425
-0.00249
0.03999
0.0425
0.03999
-0.00249
-0.02374
-0.02374
-0.02374
-0.025
-0.025
-0.00249
-0.00249
0.01374
0.01374
-0.00249
-0.025
0.0225
-0.00249
0.0225
-0.02374
-0.00249
-0.00249
0.01374
-0.02374
0.0225
0.01374
-0.025
-0.00249
0.0225
-0.00249
-0.02374
-0.00249
-0.025
-0.02374
-0.025
-0.00249
-0.025
-0.00249
-0.00249
0.025
0.025
0.025
0.025
0.025
0.02624
0.02624
0.03875
0.025
0.03875
0.02624
0.07
0.025
0.07
0.025
0.025
0.025
0.025
0.02624
0.09
0.025
0.025
0.025
0.025
0.02624
0.025
0.09
0.03875
0.025
0.03875
0.02624
0.025
0.07
0.025
0.025
0.02624
0.025
0.025
0.02624
0.07
0.025
0.03875
0.09
0.02624
0.025
0.07
0.03875
0.02624
0.07
0.03875
0.03875
0.07
0.025
0.03875
0.025
0.07
0.07
0.02624
0.02624
0.02624
0.09
0.075
0.04625
0.03875
0.09
0.03875
0.07
0.00749
0.075
0.09
0.09
0.03875
-0.00124
0.03875
0.09
0.09
0.07
0.07
0.075
0.075
0.09
0.04625
0.075
0.00749
0.04625
0.075
0.09
0.04625
0.025
0.075
0.09
0.025
-0.00124
0.04625
0.01999
0.075
0.075
0.00749
0.00749
0.04625
0.04625
0.04625
0.04625
0.00749
0.02624
0.075
0.00749
0.03875
0.04625
-0.00124
0.07
0.00749
0.00749
0.00499
0.075
-0.00124
0.04625
-0.00124
0.00749
0.00749
0.01999
0.09
0.01999
0.075
0.04625
0.00749
0.00749
0.075
-0.00124
-0.00124
0.04625
0.01999
-0.00124
0.00499
0.00499
0.01999
0.01999
0.00499
-0.00124
0.01999
-0.00124
0.01999
0.00499
0.00499
-0.00124
0.07
0.01999
0.00499
0.00749
0.00499
0.00499
-0.00124
-0.00124
0.09
0.01999
0.00499
0.01999
0.01999
0.00499
0.075
0.00499
0.04625
0.00749
-0.00124
0.01999
0.00499
0.01999
0.00499
0.01125
0.01125
0.01875
0.01875
0.01125
0.01125
0.03249
0.01875
0.025
0.01875
0.03249
0.01374
0.025
0.00999
0.01374
0.03249
0.025
0.01125
0.01125
0.01125
0.01374
0.01875
0.01875
0.01125
0.03249
0.01875
0.01125
0.00999
0.01875
0.00999
0.01125
0.01125
0.01875
0.01875
0.03249
0.01125
0.03249
0.00124
0.01875
0.025
0.01125
0.03249
0.03249
0.01875
0.025
0.00124
-0.00374
0.03249
-0.00374
0.025
-0.01624
0.01374
0.01374
0.00999
0.025
0.025
0.01374
0.01374
0.01374
0.03249
0.00249
0.00999
0.03249
0.00999
0.025
0.025
0.025
0.01875
0.00999
0.01374
0.01374
-0.01624
0.00999
0.00999
0.00124
0.00124
0.03249
0.00124
-0.00374
0.025
-0.00374
-0.01624
0.01374
-0.01624
0.00124
0.00999
0.03249
-0.00374
-0.00374
0.025
-0.01624
0.01374
-0.01624
0.00124
0.00124
0.00999
0.00249
-0.00374
0.01374
-0.01624
0.00999
0.00124
0.00999
-0.00374
-0.01624
0.00625
0.00124
0.00249
0.00249
0.00249
-0.00374
0.00625
0.00249
0.00249
0.00124
0.00625
-0.00374
0.00124
0.00625
-0.01624
0.00124
0.00249
0.00249
-0.00374
0.00249
0.00625
0.00625
-0.01624
0.00249
-0.00374
-0.00374
0.00625
0.01125
0.00249
0.00249
-0.01624
0.00249
-0.01624
0.01875
0.00249
-0.01624
0.03249
0.00625
0.00249
0.00249
0.00625
0.00249
0.00625
0.00625
0.00249
0.00249
0.00249
0.00249
0.00625
0.00625
0.00249
0.00249
0.00249
0.025
0.00249
0.01374
0.00999
0.00124
-0.00374
-0.01624
0.00249
0.00625
0.00249
0.
0.
0.
0.
0.
-0.00625
-0.00625
0.
-0.02374
-0.00625
-0.00249
-0.02374
-0.00249
0.
0.00999
0.
0.00999
-0.00625
-0.02374
-0.00249
0.
0.
0.00999
0.
-0.00625
0.
0.
0.
-0.02374
-0.00625
-0.00625
-0.00249
0.
-0.02374
0.
0.00999
-0.00625
-0.02374
-0.02374
0.
-0.00249
0.
0.00999
-0.00625
-0.02374
-0.00249
-0.02374
0.00999
-0.00249
0.
0.00999
0.
-0.00625
0.
0.
-0.00249
-0.00625
0.025
0.00999
-0.02374
0.035
-0.00249
0.
0.025
0.025
0.
0.035
-0.00625
0.025
0.025
-0.02374
0.035
0.035
-0.00249
0.035
0.0425
0.0425
0.0625
0.00999
0.0625
0.00999
0.08124
0.025
0.
0.025
0.
0.035
-0.00625
0.0425
0.025
0.0625
0.035
-0.02374
0.
0.0425
0.025
0.0425
0.
0.0625
0.035
0.035
-0.00249
0.0425
0.0425
0.08124
0.0825
0.0625
0.0425
0.025
0.0425
0.08124
0.0625
-0.00625
0.035
0.0625
0.08124
0.0825
0.0425
0.08124
0.0625
0.0625
0.08124
0.0825
0.08124
0.0825
0.0825
-0.02374
0.0625
0.08124
-0.00249
0.0825
0.08124
0.08124
0.00999
0.0825
-0.02374
0.00999
-0.00249
0.0825
0.00999
0.025
0.0825
-0.00249
0.035
0.025
0.00999
0.0425
0.035
0.0625
0.0425
0.08124
0.0625
0.0825
0.025
0.08124
0.035
0.0425
0.0625
0.08124
0.0825
0.025
0.0825
0.035
0.0425
0.0825
0.0625
0.08124
0.0825
0.04749
0.04749
0.00875
0.04749
0.00875
0.00124
0.00124
0.00875
0.00124
0.02374
0.02374
0.0225
0.02374
0.0225
0.02624
0.02624
0.0225
0.02624
0.04749
0.04749
0.00875
0.00124
0.04749
0.04749
0.02374
0.00875
0.04749
0.00124
0.00875
0.04749
0.02374
0.04749
0.00124
0.00875
0.00875
0.00124
0.00124
0.02374
0.05999
0.00875
0.08749
0.04749
0.02374
0.00124
0.00875
0.0225
0.0225
0.02374
0.05999
0.02624
0.08749
0.0225
0.07625
0.02624
0.0775
0.075
0.07625
0.08624
0.0775
0.05999
0.00875
0.0225
0.04749
0.00124
0.04749
0.05999
0.02624
0.02374
0.05999
0.04749
0.00124
0.075
0.0225
0.08749
0.02624
0.02624
0.05999
0.08749
0.08749
0.05999
0.07625
0.07625
0.0775
0.0775
0.075
0.075
0.08624
0.08624
0.02374
0.0225
0.02624
0.05999
0.08749
0.07625
0.07625
0.00875
0.08749
0.00124
0.02374
0.00875
0.07625
0.0225
0.00875
0.02374
0.00124
0.02624
0.08624
0.08749
0.0775
0.0775
0.07625
0.0225
0.05999
0.0775
0.02624
0.0775
0.075
0.075
0.08624
0.00124
0.02374
0.02374
0.075
0.075
0.0225
0.08624
0.08749
0.08624
0.08624
0.07625
0.05999
0.0775
0.08749
0.075
0.07625
0.08624
0.0775
0.075
0.08624
0.0225
0.0225
0.02624
0.02624
0.05999
0.08749
0.07625
0.05999
0.02624
0.08749
0.0775
0.07625
0.075
0.0775
0.05999
0.08624
0.075
0.08749
0.08624
0.07625
0.0775
0.075
0.08624
0.05999
0.08749
0.07625
0.0775
0.075
0.08624
0.09499
0.09499
0.09375
0.09375
0.09499
0.0775
0.0775
0.09499
0.09375
0.09499
0.09499
0.09375
0.09375
0.0775
0.0775
0.06374
0.09499
0.06374
0.06374
0.09499
0.0825
0.09375
0.09499
0.09499
0.09375
0.0825
0.06374
0.0775
0.0825
0.0825
0.0675
0.09375
0.09375
0.0775
0.0775
0.06374
0.09499
0.0675
0.06374
0.0825
0.09375
0.0825
0.0675
0.0775
0.0675
0.09499
0.0575
0.09375
0.06374
0.06374
0.0775
0.0775
0.0825
0.0675
0.06374
0.0675
0.0825
0.05249
0.0675
0.06499
0.09499
0.0575
0.09375
0.05249
0.0575
0.06499
0.0675
0.05249
0.0825
0.06499
0.0775
0.0675
0.0575
0.06374
0.0825
0.03624
0.09375
0.0775
0.0575
0.06374
0.05249
0.0825
0.06499
0.0575
0.04374
0.0575
0.05249
0.03624
0.06499
0.04374
0.0575
0.03624
0.04374
0.0575
0.05249
0.0775
0.06499
0.06374
0.0575
0.0825
0.03624
0.0575
0.0675
0.05249
0.06374
0.06499
0.0825
0.0575
0.0675
0.03624
0.04374
0.0575
0.0575
0.05249
0.03624
0.06499
0.04374
0.0575
0.0675
0.03624
0.0575
0.04374
0.0675
0.09499
0.0575
0.05249
0.06499
0.0575
0.03624
0.0575
0.04374
0.05249
0.06499
0.0575
0.03624
0.04374
0.0575
0.04374
0.03624
0.04374
0.0575
0.0575
0.05249
0.05249
0.06499
0.06499
0.0575
0.0575
0.03624
0.03624
0.04374
0.04374
0.05249
0.06499
0.0575
0.03624
0.04374
0.09375
0.0775
0.06374
0.0825
0.0675
0.0575
0.05249
0.06499
0.0575
0.03624
0.04374
0.05249
0.0775
0.05375
0.05249
0.05874
0.05249
0.0775
0.0775
0.05999
0.05375
0.05375
0.05124
0.05874
0.05999
0.04749
0.05249
0.06125
0.0775
0.05375
0.03125
0.05874
-0.00374
0.05249
0.05999
0.0775
-0.01624
0.05375
0.05249
-0.01499
0.05249
0.05124
0.05874
0.05249
0.05249
0.05249
0.05999
0.0775
0.05124
0.0775
0.0775
0.05375
0.05375
0.05874
0.04749
0.06125
0.05999
0.03125
-0.00374
0.05124
-0.01624
-0.01499
0.05249
0.05249
0.05874
0.0775
0.05999
0.05375
0.0775
0.05874
0.05375
0.05999
0.04749
0.05874
0.05249
0.05999
0.05124
0.05249
0.0775
0.05124
0.05124
0.04749
0.06125
0.04749
0.03125
0.06125
-0.00374
0.03125
-0.00374
-0.01624
-0.01499
0.06125
0.05375
0.03125
0.0775
0.05874
-0.00374
0.05375
0.05999
0.05874
-0.01624
0.05999
0.04749
-0.01499
0.05124
0.06125
0.05874
0.05999
0.03125
0.0775
0.05124
0.0775
0.05375
0.05375
0.05874
0.05874
0.05375
0.04749
0.05999
0.04749
0.06125
0.05124
0.06125
0.03125
-0.00374
0.04749
0.06125
0.03125
-0.00374
-0.01624
-0.01624
-0.01624
-0.01499
0.05124
-0.01499
-0.00374
0.05124
-0.01624
0.04749
-0.01499
0.06125
0.03125
0.04749
-0.01499
0.05999
-0.00374
0.05874
0.05999
0.05124
-0.01624
0.05124
-0.01499
0.04749
0.04749
0.06125
0.03125
0.03125
-0.00374
0.04749
-0.00374
0.06125
-0.01624
-0.01624
0.03125
-0.01499
-0.01499
-0.00374
-0.01624
0.06125
-0.01499
0.03125
0.06125
-0.00374
0.03125
-0.00374
-0.01624
-0.01624
-0.01499
-0.01499
-0.00124
0.00999
0.0375
-0.00124
0.05624
0.05
0.00999
-0.00124
-0.00124
-0.00124
0.00999
0.00999
0.0375
0.0375
0.05624
0.05624
0.0375
0.05
0.05624
0.04625
0.05
0.04625
0.04625
-0.00124
0.00999
0.0375
0.01875
-0.00124
-0.00124
-0.00124
0.05
-0.00124
0.05624
0.00999
0.04625
0.05
0.0375
-0.00124
0.05624
0.05
0.00999
0.04625
0.00999
-0.00124
0.04625
0.0375
0.05624
0.00999
-0.00124
0.0375
0.05624
0.01875
0.00999
0.05
0.0375
0.04625
0.05624
0.01875
0.05
0.0175
0.03999
0.04625
0.0575
0.04749
0.05375
0.01875
0.0175
0.03999
0.0575
0.04749
0.05375
-0.00124
0.00999
0.0375
0.05624
0.05
0.01875
0.04625
0.00999
0.01875
0.0175
0.01875
0.0175
0.03999
0.0175
0.01875
0.03999
0.0575
0.03999
0.0575
0.04749
0.0575
0.04749
0.05375
0.04749
0.05375
0.05375
0.0375
0.05624
0.00999
0.00999
0.05
0.0175
0.04625
0.05
0.03999
0.0175
0.0375
0.0375
0.0575
0.04625
0.03999
0.05624
0.0175
0.05
0.04625
0.03999
0.0375
0.05624
0.01875
0.05
0.01875
0.01875
0.04625
0.0175
0.03999
0.05624
0.04749
0.0575
0.05375
0.05
0.01875
0.0575
0.04625
0.0175
0.0575
0.04749
0.03999
0.0175
0.0575
0.05375
0.04749
0.04749
0.01875
0.05375
0.0175
0.0175
0.03999
0.03999
0.04749
0.01875
0.03999
0.0575
0.05375
0.0175
0.03999
0.0575
0.04749
0.0575
0.05375
0.05375
0.04749
0.05375
0.04749
0.0575
0.05375
0.04749
0.05375
0.04874
0.04874
0.06125
0.06125
0.05249
0.05249
0.05249
0.05249
0.05624
0.05624
0.03875
0.03875
0.04874
0.04874
0.06125
0.06125
0.05249
0.05249
0.04874
0.05624
0.04874
0.06125
0.06125
0.05249
0.03875
0.05249
0.05249
0.05249
0.05624
0.05624
0.03875
0.03875
0.05249
0.05249
0.05624
0.04874
0.03875
0.06125
0.05249
0.04874
0.05249
0.05624
0.03875
0.04874
0.04874
0.06125
0.05249
0.04874
0.03125
0.05375
0.04874
0.0775
0.06125
0.06125
0.04874
0.05249
0.05249
0.06125
0.05249
0.05249
0.03125
0.05375
0.0775
0.03125
0.07249
0.03125
0.05375
0.05249
0.06125
0.0775
0.05249
0.07249
0.05375
0.07249
0.085
0.03125
0.05249
0.06624
0.085
0.05624
0.06624
0.03875
0.085
0.05624
0.05249
0.03875
0.06125
0.05249
0.04874
0.05624
0.03125
0.05375
0.03875
0.05624
0.03125
0.0775
0.03875
0.05375
0.07249
0.0775
0.085
0.03125
0.03125
0.03125
0.06624
0.06624
0.05375
0.03125
0.05624
0.05375
0.0775
0.07249
0.06125
0.07249
0.085
0.085
0.06624
0.05375
0.06624
0.05375
0.0775
0.0775
0.05375
0.07249
0.07249
0.0775
0.0775
0.085
0.085
0.07249
0.07249
0.06624
0.06624
0.085
0.085
0.03875
0.0775
0.06624
0.07249
0.05249
0.05249
0.05249
0.05249
0.05624
0.03875
0.05624
0.03875
0.03125
0.03125
0.05375
0.05375
0.0775
0.0775
0.07249
0.07249
0.085
0.085
0.06624
0.06624
0.085
0.03125
0.06624
0.06624
0.05375
0.0775
0.07249
0.085
0.06624
0.06875
0.04374
0.00625
0.06875
0.04374
-0.02374
-0.00249
0.06875
0.06875
0.00499
0.04374
0.04374
0.00625
0.00625
-0.02374
0.06875
0.06875
0.06875
0.04374
0.00625
0.04374
0.04374
-0.02374
0.00625
-0.00249
-0.02374
0.00499
-0.00249
0.00499
0.06875
0.06875
0.04374
0.04374
-0.02374
0.00625
0.00625
-0.00249
0.06875
-0.02374
-0.01499
0.04374
0.06875
-0.00249
0.04374
-0.01499
0.06875
0.00625
-0.0425
0.04374
-0.02374
0.00625
0.00625
0.00625
-0.00249
-0.00249
-0.0425
-0.02374
0.00499
-0.02374
0.00499
-0.00249
-0.00249
-0.02374
0.00499
0.00499
-0.00249
-0.01499
-0.04125
0.00499
-0.0425
-0.04374
-0.04125
-0.01499
0.00625
-0.04374
-0.01125
-0.02374
-0.01499
-0.01499
0.01499
-0.00249
-0.0425
-0.0425
-0.04125
-0.04125
-0.01499
-0.04374
-0.04374
-0.01125
-0.01125
0.01499
0.06875
0.01499
0.06875
0.04374
0.00625
-0.02374
-0.00249
0.00499
0.00499
-0.02374
0.00499
-0.01499
-0.0425
-0.01499
-0.04125
0.00499
-0.0425
-0.01499
-0.04125
-0.0425
-0.04374
-0.04125
-0.04125
-0.01499
-0.04374
-0.0425
-0.01125
-0.04125
-0.01125
0.04374
0.01499
-0.0425
0.01499
-0.04374
-0.01125
-0.01125
-0.04374
0.01499
0.01499
-0.01499
0.00625
-0.04125
-0.0425
-0.0425
-0.04374
-0.02374
-0.01125
-0.04125
-0.01125
-0.00249
-0.04374
0.01499
-0.00249
-0.04374
-0.01125
-0.01125
0.00499
0.01499
-0.01499
-0.04125
-0.0425
-0.04125
-0.04374
-0.04374
-0.01125
0.01499
-0.01125
0.01499
0.00499
0.01499
0.01499
-0.01499
-0.0425
-0.04125
-0.04374
-0.01125
0.01499
0.05249
0.0575
0.04625
0.05375
0.05249
0.03999
0.0575
0.05249
0.00499
0.0575
0.04625
0.04625
0.05249
-0.0125
0.05249
0.05249
-0.045
0.05375
0.05249
0.05375
-0.05874
0.0575
0.03999
-0.0625
0.04625
0.0575
-0.03999
0.04625
0.0575
0.01125
0.04625
0.00499
0.05375
0.05249
0.03999
0.05249
0.0575
0.00499
0.04625
0.0575
0.05375
0.05249
0.05375
0.03999
0.05249
0.0575
0.03999
0.0575
0.04625
0.04625
0.00499
0.04625
0.05375
-0.0125
0.05375
0.03999
0.03999
-0.045
0.00499
0.03999
-0.05874
-0.0125
0.00499
-0.0625
-0.045
-0.03999
0.01125
0.05249
-0.0125
0.05249
-0.0125
0.0575
-0.045
0.05375
0.00499
-0.05874
0.03999
-0.0625
0.00499
-0.045
-0.05874
-0.05874
0.00499
-0.0625
-0.0125
-0.03999
0.01125
0.0575
0.05249
0.0575
-0.0125
-0.045
0.05375
-0.045
-0.05874
0.03999
-0.05874
0.00499
-0.0625
-0.0625
-0.03999
-0.03999
0.01125
-0.0125
-0.045
0.0575
-0.05874
0.04625
-0.0625
0.05375
-0.0125
-0.03999
0.04625
-0.045
0.01125
0.05375
-0.05874
-0.0625
0.04625
-0.03999
-0.03999
-0.0125
0.05375
0.01125
0.01125
-0.045
0.04625
0.01125
0.03999
0.00499
0.03999
0.00499
-0.0125
0.03999
-0.0625
-0.05874
0.00499
-0.03999
-0.0625
0.01125
-0.03999
0.01125
-0.0125
-0.045
-0.045
0.05375
-0.05874
-0.05874
0.03999
-0.0625
0.00499
-0.0625
-0.03999
-0.03999
0.01125
0.01125
-0.0125
-0.0125
-0.045
-0.05874
-0.045
-0.05874
-0.0625
-0.0625
-0.03999
-0.03999
0.01125
0.01125
0.00625
-0.0125
0.00625
0.00374
-0.0125
0.04874
0.00374
0.0675
0.075
0.04874
0.0675
0.00625
0.00625
-0.0125
-0.0125
0.00374
0.00374
0.00625
0.04874
-0.0125
0.04874
0.00374
0.00625
0.04874
0.00625
0.0675
0.00625
0.075
-0.0125
0.00625
-0.0125
0.00374
0.00374
-0.0125
0.04874
0.00374
0.0675
0.075
0.04874
0.0675
0.00625
0.075
-0.0125
0.00625
0.00374
0.00625
-0.0125
-0.0125
0.00625
0.00374
0.0675
-0.0125
0.075
0.075
0.04125
-0.00124
-0.00999
0.
0.04125
0.01499
0.03875
0.00374
-0.00124
0.04874
0.04125
0.0675
-0.00124
0.075
0.04125
-0.00999
0.04125
0.04125
-0.00124
0.00374
0.
0.01499
0.04874
0.0675
0.03875
0.075
-0.0125
0.00374
0.00625
0.04125
-0.0125
0.04874
0.00374
0.0675
0.04874
0.04874
0.075
0.0675
-0.00999
0.075
0.
0.01499
0.03875
0.04125
0.04125
-0.00124
-0.00124
-0.00124
-0.00999
-0.00999
-0.00999
0.
0.
0.01499
0.01499
0.03875
0.03875
0.04874
0.0675
0.0675
0.075
-0.00999
0.04125
-0.00124
-0.00124
-0.00999
-0.00999
0.
0.0675
0.01499
0.075
0.03875
-0.00124
0.04125
-0.00999
-0.00124
0.
-0.00999
0.01499
0.04874
0.03875
0.
0.075
0.04125
-0.00124
0.
0.
0.01499
0.01499
0.03875
-0.00999
0.
0.0675
0.01499
0.04125
0.03875
0.03875
-0.00124
0.
0.075
0.01499
0.03875
-0.00999
0.01499
0.
0.01499
0.03875
0.03875
0.04125
-0.00124
-0.00999
0.
0.01499
0.03875
0.0775
0.11249
0.0775
0.11249
0.10875
0.10875
0.08375
0.08375
0.09375
0.09375
0.1075
0.1075
0.0775
0.0775
0.11249
0.10875
0.0775
0.08375
0.11249
0.0775
0.10875
0.09375
0.08375
0.1075
0.09375
0.1075
0.10999
0.06875
0.10999
0.03875
0.06875
0.04125
0.01125
0.03875
0.00999
0.04125
0.01125
0.0775
0.00999
0.11249
0.10875
0.08375
0.0775
0.09375
0.11249
0.1075
0.10875
0.08375
0.09375
0.1075
0.10999
0.11249
0.10875
0.08375
0.0775
0.09375
0.11249
0.1075
0.0775
0.10999
0.11249
0.10875
0.08375
0.11249
0.09375
0.10875
0.08375
0.0775
0.09375
0.10999
0.0775
0.11249
0.10999
0.10875
0.06875
0.08375
0.03875
0.09375
0.0775
0.04125
0.01125
0.00999
0.11249
0.11249
0.10875
0.10875
0.08375
0.08375
0.09375
0.09375
0.1075
0.1075
0.10999
0.06875
0.03875
0.04125
0.10999
0.01125
0.00999
0.06875
0.03875
0.04125
0.01125
0.06875
0.06875
0.0775
0.03875
0.11249
0.04125
0.10875
0.10999
0.01125
0.08375
0.06875
0.00999
0.09375
0.03875
0.1075
0.04125
0.1075
0.01125
0.10875
0.00999
0.08375
0.09375
0.1075
0.00999
0.10999
0.06875
0.03875
0.04125
0.01125
0.00999
0.1075
0.06875
0.03875
0.04125
0.10999
0.01125
0.06875
0.00999
0.1075
0.10999
0.10999
0.10999
0.06875
0.06875
0.03875
0.03875
0.06875
0.03875
0.04125
0.03875
0.01125
0.04125
0.00999
0.03875
0.04125
0.04125
0.01125
0.01125
0.00999
0.00999
0.04125
0.01125
0.01125
0.00999
0.00999
0.02374
0.0225
0.025
0.03999
0.02374
0.06125
0.0225
0.05124
0.025
0.03999
0.06125
0.05124
0.02374
0.0225
0.025
0.02374
0.0225
0.02374
0.025
0.02374
0.0225
0.0225
0.025
0.025
0.03999
0.02374
0.03999
0.06125
0.06125
0.05124
0.0225
0.025
0.02374
0.03999
0.06125
0.05124
0.02374
0.03624
0.03624
0.06499
0.06499
0.075
0.075
0.05124
0.07874
0.06624
0.02374
0.07874
0.07
0.0225
0.025
0.03999
0.06624
0.03624
0.06125
0.06499
0.05124
0.075
0.07
0.03999
0.03999
0.03624
0.06125
0.05124
0.06125
0.02374
0.07874
0.05124
0.06624
0.07
0.03624
0.06499
0.075
0.07874
0.06624
0.07
0.02374
0.0225
0.0225
0.025
0.025
0.03624
0.03999
0.06499
0.06125
0.075
0.05124
0.02374
0.0225
0.025
0.03999
0.03624
0.06125
0.06499
0.03624
0.02374
0.03999
0.075
0.0225
0.06125
0.07874
0.0225
0.0225
0.06624
0.07874
0.025
0.06624
0.07
0.03624
0.05124
0.05124
0.025
0.025
0.03999
0.06499
0.07
0.075
0.07874
0.03999
0.06624
0.03624
0.07
0.06499
0.03624
0.075
0.06499
0.06499
0.07874
0.075
0.06499
0.06624
0.06125
0.07874
0.07
0.05124
0.06624
0.06125
0.07
0.05124
0.075
0.03999
0.07874
0.06125
0.05124
0.075
0.07874
0.03624
0.06499
0.06624
0.03624
0.075
0.07
0.06499
0.07874
0.075
0.06624
0.07
0.07874
0.06624
0.03624
0.07
0.06499
0.075
0.07874
0.06624
0.06624
0.07
0.07
0.09624
0.0625
0.04374
0.09624
0.09624
0.01374
0.0625
0.09624
0.0625
0.04374
0.04374
0.01374
0.01374
0.0125
0.0125
0.03624
0.03624
0.05249
0.05249
0.05999
0.0625
0.0125
0.05999
0.03624
0.08375
0.0925
0.09624
0.09624
0.075
0.0625
0.0625
0.05249
0.04125
0.04374
0.05999
0.08375
0.09624
0.0925
0.09624
0.075
0.0625
0.04125
0.04374
0.09624
0.01374
0.0625
0.0125
0.09624
0.09624
0.03624
0.0625
0.04374
0.01374
0.0625
0.0125
0.04374
0.03624
0.05249
0.05999
0.08375
0.0925
0.075
0.04125
0.04374
0.08375
0.01374
0.0125
0.0625
0.09624
0.04374
0.0625
0.01374
0.04374
0.09624
0.0125
0.01374
0.09624
0.0125
0.0625
0.03624
0.04374
0.05249
0.05999
0.08375
0.0925
0.01374
0.075
0.04125
0.01374
0.0125
0.01374
0.04374
0.03624
0.0925
0.0125
0.04374
0.0125
0.075
0.03624
0.03624
0.04125
0.03624
0.05249
0.01374
0.01374
0.0625
0.03624
0.04374
0.05249
0.01374
0.05249
0.05999
0.0125
0.05999
0.08375
0.03624
0.05249
0.0125
0.05249
0.03624
0.05249
0.05999
0.05249
0.08375
0.08375
0.05999
0.05999
0.0925
0.0925
0.0925
0.08375
0.075
0.0925
0.04125
0.075
0.075
0.08375
0.05249
0.05999
0.04125
0.0925
0.075
0.0125
0.04125
0.03624
0.05999
0.08375
0.08375
0.0925
0.0925
0.075
0.075
0.04125
0.04125
0.04125
0.075
0.05999
0.04125
0.08375
0.0925
0.075
0.04125
0.05249
0.05999
0.08375
0.0925
0.075
0.04125
0.01999
-0.00749
0.01999
-0.02374
-0.00749
-0.02749
0.01999
-0.04374
-0.00749
-0.05499
-0.02374
-0.02749
-0.04374
0.01999
-0.05499
0.01999
-0.00749
-0.00749
-0.02374
-0.02374
-0.07124
-0.02749
-0.02749
-0.04374
0.01999
-0.02374
0.01999
-0.02749
-0.05874
-0.00749
-0.05
-0.04374
-0.0575
-0.05499
-0.05124
0.01999
-0.05375
-0.00749
-0.07124
0.01999
-0.05874
0.01999
-0.00749
-0.05
-0.02374
-0.02374
-0.0575
-0.02749
-0.00749
-0.05124
-0.05499
-0.04374
0.01999
-0.04374
0.01999
0.01999
-0.02374
-0.00749
-0.02749
-0.00749
-0.02374
-0.04374
-0.07124
-0.02749
-0.02374
-0.05499
-0.02749
-0.07124
-0.02749
-0.04374
-0.05874
-0.00749
-0.04374
-0.05499
-0.05
-0.02374
-0.05375
-0.0575
0.01999
-0.02749
-0.05124
-0.04374
-0.05375
-0.05499
-0.07124
-0.05874
-0.05
-0.0575
-0.04374
-0.05499
-0.07124
-0.05499
-0.05499
-0.00749
-0.05874
-0.02374
-0.05874
-0.05
-0.05499
-0.02749
-0.05
-0.00749
-0.02374
-0.02374
-0.02749
-0.0575
-0.0575
-0.05124
-0.05124
-0.05375
-0.05375
-0.07124
-0.07124
-0.05874
-0.02749
-0.05
-0.04374
-0.0575
-0.05874
-0.07124
-0.04374
-0.05499
-0.05
-0.05874
-0.05499
-0.0575
-0.05
-0.07124
-0.07124
-0.07124
-0.07124
-0.05874
-0.05124
-0.05874
-0.0575
-0.05375
-0.05874
-0.05124
-0.05
-0.05874
-0.05
-0.0575
-0.05124
-0.05
-0.05124
-0.05375
-0.0575
-0.05375
-0.05124
-0.05
-0.04374
-0.0575
-0.05499
-0.0575
-0.05124
-0.05124
-0.05375
-0.05375
-0.05124
-0.05375
-0.05375
-0.05375
-0.07124
-0.05874
-0.05
-0.0575
-0.05124
-0.05375
-0.07374
-0.07374
-0.08749
-0.08749
-0.0775
-0.07374
-0.07374
-0.07124
-0.0775
-0.07374
-0.07124
-0.07374
-0.075
-0.08749
-0.0775
-0.07374
-0.075
-0.07374
-0.08749
-0.08749
-0.0775
-0.07124
-0.075
-0.07374
-0.0775
-0.07124
-0.07374
-0.075
-0.06374
-0.07124
-0.05499
-0.075
-0.07374
-0.01999
-0.08749
-0.00999
-0.0775
-0.0125
-0.07374
-0.06374
-0.07374
-0.07374
-0.08749
-0.05499
-0.07124
-0.08749
-0.0775
-0.0775
-0.07374
-0.06374
-0.07374
-0.07124
-0.08749
-0.075
-0.07374
-0.0775
-0.07374
-0.07124
-0.07374
-0.07374
-0.08749
-0.06374
-0.08749
-0.0775
-0.0775
-0.01999
-0.07374
-0.07124
-0.07374
-0.07374
-0.07374
-0.06374
-0.07124
-0.06374
-0.075
-0.05499
-0.00374
-0.08749
-0.01999
-0.08749
-0.05499
-0.075
-0.075
-0.075
-0.08749
-0.00999
-0.05499
-0.0775
-0.01999
-0.07374
-0.06374
-0.00999
-0.05499
-0.0125
-0.01999
-0.00374
-0.06374
-0.00999
-0.0775
-0.01999
-0.07374
-0.00999
-0.0775
-0.07124
-0.07374
-0.075
-0.0125
-0.00374
-0.07374
-0.06374
-0.07124
-0.07124
-0.05499
-0.075
-0.01999
-0.00999
-0.0125
-0.00374
-0.06374
-0.05499
-0.0125
-0.01999
-0.00374
-0.05499
-0.0125
-0.07124
-0.05499
-0.06374
-0.075
-0.01999
-0.05499
-0.00999
-0.01999
-0.0125
-0.00999
-0.06374
-0.00999
-0.0125
-0.05499
-0.075
-0.00374
-0.01999
-0.00999
-0.00374
-0.06374
-0.06374
-0.01999
-0.05499
-0.05499
-0.01999
-0.00374
-0.0125
-0.01999
-0.00999
-0.00999
-0.00374
-0.0125
-0.00374
-0.00999
-0.00999
-0.0125
-0.0125
-0.00374
-0.00374
-0.0125
-0.00374
-0.0125
-0.00374
0.01125
0.01999
0.02125
0.01875
0.02374
0.01125
0.01999
0.02125
0.01875
0.01125
0.02374
0.035
0.01125
0.01125
0.01125
0.01999
0.02125
0.01125
0.035
0.01999
0.00749
0.02125
0.01875
-0.00999
0.02374
-0.01499
0.035
0.01125
0.01125
0.01999
0.01999
0.02125
0.02125
0.01125
0.01125
0.035
0.01999
0.01999
0.02125
0.01875
0.01875
0.035
0.02374
0.01999
0.00749
0.01999
-0.00999
0.02125
0.035
-0.01499
0.01875
0.01875
0.035
0.01125
0.02125
-0.02624
0.01875
-0.02624
-0.05124
0.02374
-0.05124
0.01999
0.02125
0.01999
0.01125
0.02125
0.01875
0.01125
0.01999
0.02125
0.02374
0.035
0.01875
0.02374
0.00749
0.035
0.02374
0.035
0.035
0.035
0.02125
0.02374
0.02374
-0.00999
0.01875
-0.01499
0.02374
0.01875
-0.02624
0.035
0.035
0.00749
0.035
0.00749
-0.05124
0.01999
-0.00999
0.035
0.035
0.02125
0.035
0.00749
0.00749
0.01875
0.00749
0.02374
-0.00999
0.035
0.035
-0.01499
0.035
-0.02624
-0.05124
0.00749
0.035
0.00749
-0.00999
-0.00999
-0.00999
-0.01499
-0.01499
-0.00999
-0.01499
0.02374
-0.01499
-0.02624
-0.01499
0.035
-0.05124
0.01875
-0.02624
-0.02624
0.035
-0.05124
0.00749
-0.05124
-0.02624
0.02374
-0.00999
0.035
-0.00999
-0.05124
-0.01499
-0.02624
0.00749
0.035
-0.05124
0.035
-0.01499
-0.00999
-0.02624
-0.01499
-0.05124
-0.02624
0.035
0.00749
-0.05124
0.00749
-0.02125
-0.00249
-0.02125
-0.00249
-0.02125
-0.00249
0.01374
-0.02125
0.00499
-0.00249
0.01374
-0.02125
0.01374
-0.02125
0.00499
0.00499
-0.00249
-0.02125
0.01374
0.01125
0.00499
0.01125
0.00374
0.00374
0.01125
0.01125
-0.00249
0.00374
-0.00374
0.00374
0.
-0.00374
0.01374
-0.02125
-0.02125
0.01374
-0.02125
-0.00249
0.00499
-0.00249
0.01374
0.01125
0.00499
-0.02125
0.00374
-0.00249
0.01125
0.00374
-0.02125
-0.00374
-0.00374
0.
-0.00374
-0.02125
0.
0.01875
0.01875
0.03125
0.03125
0.03375
0.
0.03375
0.01875
0.05249
0.05249
0.03125
0.
0.00499
0.03375
-0.00249
0.01374
0.01875
0.00499
0.03125
0.01875
0.01125
0.03375
0.01125
0.03125
0.00374
0.05249
0.03375
0.05249
-0.02125
-0.00374
0.
-0.00374
-0.00249
-0.00249
0.
0.01875
0.01374
0.01374
0.03125
-0.00249
0.01374
0.03375
0.05249
0.00499
0.05249
0.01125
0.01875
0.00374
-0.00249
0.03125
0.00499
0.00499
0.01374
0.01125
0.01374
0.00499
0.00374
0.01125
-0.00374
0.03375
0.01374
0.00374
0.01125
0.
0.05249
0.01875
0.03125
0.03375
0.00374
0.05249
0.00374
-0.00374
0.
-0.00374
0.01875
-0.00374
0.03125
0.03375
0.
0.05249
0.01875
0.00499
-0.00374
0.00499
0.01125
0.00374
0.
0.
0.03125
0.01875
0.03125
0.03375
-0.00374
0.05249
0.03375
0.05249
0.01125
0.
0.01875
0.01875
0.03125
0.03125
0.03375
0.00374
0.03375
0.05249
0.05249
-0.00374
0.
0.01875
0.03125
0.03375
0.05249
0.07
0.09624
0.07
0.07874
0.09624
0.05124
0.07874
0.07
0.05124
0.07
0.01624
0.07
0.09624
0.09624
0.07
0.07874
0.07874
0.07
0.05124
0.05124
0.09624
0.01624
0.09624
0.07
0.07874
0.
0.09624
0.05124
0.
0.01624
0.07
0.01624
0.
0.
-0.00374
0.07874
0.07
-0.00249
-0.00374
0.05124
0.09624
-0.02374
0.07874
-0.03125
0.05124
-0.05
0.01624
-0.05
0.07
0.
-0.00249
0.09624
0.09624
0.01624
0.07874
0.
0.07874
0.05124
-0.00374
0.05124
0.01624
0.01624
0.07
0.
-0.00374
0.09624
-0.00249
0.07874
0.05124
-0.02374
0.
0.01624
0.07
0.01624
-0.00249
0.09624
-0.03125
0.07874
-0.05
-0.02374
0.07874
0.07
-0.00374
-0.00374
0.
-0.02374
0.09624
-0.03125
0.05124
-0.00374
0.09624
-0.05
-0.00249
-0.02374
-0.00249
-0.00374
-0.00374
-0.02374
0.07874
-0.00249
-0.00249
-0.02374
0.07874
-0.05
-0.03125
-0.05
-0.02374
-0.05
-0.03125
0.05124
-0.05
0.01624
0.01624
-0.00249
-0.05
0.
-0.03125
0.
-0.05
-0.00374
-0.03125
-0.05
-0.05
-0.00249
-0.05
0.
-0.03125
-0.05
-0.05
-0.00374
-0.00249
-0.02374
-0.03125
-0.05
-0.05
-0.02374
-0.05
0.05124
-0.03125
0.05124
-0.02374
0.01624
0.01624
0.
0.
-0.05
-0.03125
-0.00374
-0.00249
-0.05
-0.05
-0.00374
-0.02374
-0.00249
-0.03125
-0.02374
-0.05
-0.03125
-0.05
-0.05
-0.05
-0.00374
-0.00249
-0.05
-0.02374
-0.03125
-0.05
-0.05
-0.04125
0.00124
-0.04125
0.08375
0.00124
0.10999
-0.04125
0.1
0.08375
0.00124
0.0675
0.10999
0.08375
0.10999
0.1
-0.04125
-0.04125
0.1
0.00124
0.00124
-0.04125
0.08375
-0.04125
0.10999
0.1
0.0675
0.0675
0.02999
0.0675
-0.04125
0.00124
0.00124
0.02999
-0.04125
0.00124
0.0375
0.00124
-0.04125
0.08375
0.08375
0.08375
0.10999
0.08375
0.10999
0.1
0.10999
0.1
-0.04125
0.1
0.0675
0.00124
0.0375
0.10999
0.02999
0.03375
0.1
0.00749
-0.04125
0.03375
0.0675
0.08375
0.0675
0.10999
-0.04125
0.0675
0.00124
0.00124
0.08375
0.08375
0.02999
0.02999
0.10999
0.0375
0.0375
0.0375
0.03375
0.00749
-0.00374
0.00749
0.02999
0.10999
-0.025
0.0375
0.1
0.03375
0.0675
0.03375
0.00749
0.1
0.02999
0.00749
0.0675
-0.00374
0.0375
-0.00374
0.03375
-0.025
0.02999
-0.04125
0.00749
0.03375
0.00124
-0.00374
0.02999
0.00124
0.08375
0.0375
-0.00374
0.10999
0.08375
-0.00374
0.1
0.10999
0.0675
0.1
-0.025
0.00749
0.0675
-0.025
0.0375
-0.00374
0.03375
0.08375
-0.025
0.00749
-0.025
0.03375
0.1
0.0675
-0.00374
0.02999
0.0375
-0.025
0.03375
0.00749
-0.025
-0.00374
0.02999
0.10999
0.00749
-0.025
0.02999
-0.00374
0.0375
-0.025
0.03375
0.02999
0.1
0.0375
0.0675
0.0375
0.03375
0.00749
-0.00374
0.02999
0.00749
-0.025
-0.00374
0.03375
0.00749
-0.025
-0.00374
0.0375
0.03375
-0.025
0.00749
-0.00374
-0.025
-0.02125
-0.01125
-0.02125
0.01875
-0.01125
0.05249
-0.02125
0.01875
-0.01125
0.07
0.05249
0.07
0.05124
0.05124
0.01875
0.05249
-0.02125
-0.02125
-0.02125
-0.02125
-0.01125
-0.01125
-0.01125
0.01875
0.07
0.01875
-0.02125
-0.02125
-0.01125
0.05124
0.01875
-0.01125
-0.02125
0.05249
0.05249
0.01875
-0.01125
0.07
-0.01125
0.05249
0.01875
0.05124
0.07
0.07
0.01875
0.05124
-0.02125
0.05124
-0.01125
0.00875
-0.01125
0.00875
0.05249
0.00875
0.00374
0.01875
-0.01125
0.05249
0.035
0.00374
0.07
-0.02125
0.035
0.05124
-0.01125
0.00875
0.00875
-0.01125
-0.01125
0.00374
0.00374
0.00875
0.035
-0.01125
0.01875
0.00374
-0.02125
0.05249
0.05249
-0.01125
0.
0.
0.07
0.05249
-0.01999
0.05124
0.035
-0.01125
0.07
-0.02125
0.00374
0.05124
-0.01125
0.035
0.01875
0.
0.01875
0.01875
0.05249
0.
0.05249
0.00875
-0.01999
0.07
0.07
0.05124
0.05124
-0.01999
0.05249
0.00875
0.07
-0.01125
0.05124
0.07
0.00875
0.00374
0.05124
-0.01125
0.07
0.00374
0.05124
0.035
0.00875
0.
0.
-0.01999
0.00875
0.00875
-0.01125
0.035
0.00374
0.
0.035
-0.01999
0.00875
0.
-0.01125
-0.01125
0.00374
0.00374
-0.01125
0.035
0.035
0.00374
0.
-0.01999
0.035
0.00875
0.
-0.01125
-0.01999
-0.01999
0.00374
-0.01125
0.00374
0.035
-0.01999
0.
0.035
-0.01999
0.
-0.01999
0.035
0.
0.
-0.01999
-0.01999
-0.01999
-0.00749
0.0175
-0.00749
-0.00749
0.0175
0.0175
0.01875
-0.00749
-0.00749
0.0175
-0.00749
0.0175
0.01875
0.01875
0.00499
0.00499
-0.00749
-0.01125
0.01875
-0.02875
0.00499
-0.00749
-0.01125
-0.02875
-0.02125
-0.00749
-0.01125
-0.00499
0.0175
-0.00749
0.01875
-0.02125
0.0175
0.00499
-0.00749
-0.00499
-0.01125
0.0175
-0.02875
-0.02875
0.01875
-0.00749
0.00499
0.0175
0.01875
0.03375
-0.00749
0.01875
0.00499
0.00499
0.00499
-0.01125
-0.01125
-0.02875
-0.02875
0.0175
0.01875
0.00499
0.05999
-0.01125
-0.02875
-0.02125
-0.00499
-0.02125
0.03375
0.05999
-0.00499
0.085
0.08624
0.0175
0.03375
0.01875
-0.02125
0.03375
0.00499
-0.00499
0.05999
0.05999
0.085
-0.01125
0.03375
0.01875
-0.02875
0.05999
0.00499
0.085
0.0175
0.08624
-0.02125
-0.02125
-0.01125
-0.01125
-0.00499
-0.02875
-0.02875
-0.00749
0.0175
0.01875
-0.02125
0.00499
-0.01125
-0.00499
0.0175
-0.02125
0.01875
0.03375
-0.00499
0.00499
0.05999
0.03375
-0.01125
0.085
0.08624
0.085
0.08624
0.08624
-0.02875
0.01875
0.00499
0.03375
-0.01125
-0.02125
-0.00499
-0.02875
0.03375
0.085
-0.02125
-0.00499
-0.00499
-0.02875
-0.02125
-0.01125
0.03375
-0.00499
0.05999
-0.02875
0.03375
0.05999
0.05999
0.085
0.085
0.03375
0.08624
0.085
0.05999
0.05999
-0.02125
0.085
-0.00499
0.08624
0.03375
0.05999
-0.02125
0.085
0.08624
-0.00499
0.08624
0.03375
0.05999
0.05999
0.08624
0.08624
0.085
0.085
0.085
0.08624
0.08624
0.08624
0.05249
0.05249
0.045
0.05249
0.025
0.045
0.025
0.01875
0.05249
0.01875
0.045
0.02125
0.02125
0.025
0.03125
0.03125
0.045
0.025
0.01875
0.02125
0.03125
0.01875
0.02125
0.05249
0.045
0.03125
0.025
0.01875
0.02125
0.03125
0.05249
0.045
0.04625
0.04625
0.025
0.0775
0.0775
0.01875
0.10999
0.10999
0.02125
0.11375
0.03125
0.11375
0.05249
0.045
0.04625
0.0775
0.10999
0.05249
0.045
0.025
0.04625
0.01875
0.0775
0.11375
0.05249
0.10999
0.09499
0.05249
0.05249
0.09499
0.05249
0.045
0.09499
0.045
0.025
0.025
0.09875
0.025
0.01875
0.045
0.045
0.01875
0.05249
0.09875
0.02125
0.04625
0.09875
0.03125
0.0775
0.01875
0.02125
0.11375
0.02125
0.02125
0.025
0.04625
0.04625
0.025
0.045
0.05249
0.10999
0.01875
0.025
0.045
0.02125
0.11375
0.01875
0.0775
0.09499
0.03125
0.03125
0.10999
0.09875
0.03125
0.025
0.03125
0.01875
0.09499
0.02125
0.0775
0.09875
0.10999
0.11375
0.03125
0.09499
0.01875
0.09875
0.11375
0.09499
0.09875
0.02125
0.04625
0.03125
0.0775
0.10999
0.11375
0.09499
0.09875
0.04625
0.04625
0.04625
0.0775
0.04625
0.0775
0.0775
0.04625
0.0775
0.0775
0.10999
0.11375
0.09499
0.10999
0.09875
0.10999
0.10999
0.11375
0.11375
0.11375
0.09499
0.09499
0.09499
0.10999
0.09875
0.09875
0.11375
0.09499
0.09875
0.02125
0.09875
0.03125
0.04625
0.0775
0.10999
0.11375
0.09499
0.09875
0.08124
0.08375
0.08124
0.05999
0.08124
0.075
0.07874
0.08124
0.08124
0.08124
0.08124
0.08375
0.05375
0.08375
0.08124
0.05999
0.08375
0.08375
0.08375
0.08375
0.08124
0.08375
0.05999
0.08124
0.075
0.05999
0.07874
0.075
0.05375
0.07874
0.05375
0.08375
0.05249
0.05999
0.05999
0.075
0.05249
0.07874
0.06875
0.05375
0.08124
0.08375
0.05249
0.05999
0.05249
0.075
0.06875
0.07874
0.115
0.125
0.05375
0.10499
0.05249
0.05999
0.05999
0.075
0.08124
0.07874
0.05999
0.06875
0.08375
0.08124
0.08375
0.115
0.05375
0.05999
0.125
0.10499
0.05249
0.06875
0.115
0.08124
0.05249
0.075
0.07874
0.05375
0.075
0.07874
0.05375
0.05249
0.06875
0.06875
0.115
0.115
0.125
0.125
0.125
0.05249
0.10499
0.10499
0.06875
0.05249
0.05249
0.115
0.115
0.05999
0.08375
0.05249
0.075
0.075
0.075
0.07874
0.08375
0.125
0.07874
0.06875
0.05999
0.05375
0.075
0.07874
0.075
0.10499
0.07874
0.07874
0.05249
0.05375
0.05375
0.05249
0.05375
0.06875
0.05375
0.05249
0.05999
0.05249
0.115
0.06875
0.06875
0.125
0.115
0.115
0.10499
0.125
0.05249
0.10499
0.125
0.075
0.10499
0.05249
0.07874
0.10499
0.115
0.06875
0.05249
0.125
0.05249
0.10499
0.05249
0.05375
0.05249
0.06875
0.125
0.115
0.05249
0.115
0.10499
0.125
0.05249
0.10499
0.05249
0.05249
0.125
0.06875
0.10499
0.115
0.05249
0.125
0.10499
0.05249
0.04749
0.04749
0.04125
0.04125
0.06125
0.06125
0.05624
0.04749
0.04749
0.04125
0.04749
0.04125
0.04749
0.06125
0.06125
0.04125
0.05624
0.05624
0.06125
0.04749
0.04125
0.04749
0.06125
0.04749
0.04374
0.05624
0.04125
0.05624
0.04749
0.04749
0.04374
0.04374
0.02999
0.01999
0.02999
0.04749
0.00749
0.02999
0.01999
0.04749
0.01999
0.00749
0.00124
0.04374
0.06125
0.00124
0.04749
0.05624
0.00625
0.04749
0.04749
0.01999
0.04125
0.04749
0.04125
0.06125
0.04125
0.05624
0.04749
0.04125
0.06125
0.04749
0.04125
0.00749
0.06125
0.04374
0.06125
0.05624
0.05624
0.04749
0.04749
0.02999
0.04374
0.05624
0.04374
0.06125
0.04374
0.02999
0.02999
0.01999
0.02999
0.01999
0.00749
0.05624
0.00124
0.01999
0.04749
0.00124
0.00749
0.00625
0.00625
0.00124
0.01999
0.01999
0.00625
0.01999
0.00625
0.04749
0.01999
0.01999
0.04125
0.04374
0.00749
0.05624
0.04749
0.04749
0.04374
0.04749
0.04374
0.04125
0.00749
0.06125
0.00124
0.05624
0.04749
0.04374
0.02999
0.06125
0.02999
0.01999
0.01999
0.05624
0.02999
0.00124
0.01999
0.00749
0.00625
0.00124
0.02999
0.01999
0.00625
0.01999
0.00749
0.00749
0.00124
0.00124
0.00625
0.00625
0.00625
0.04374
0.01999
0.01999
0.01999
0.04749
0.02999
0.04374
0.01999
0.02999
0.01999
0.00749
0.00749
0.02999
0.00124
0.00124
0.00625
0.00625
0.00749
0.01999
0.00124
0.00625
0.01999
0.01999
0.01999
0.01999
0.00749
0.00124
0.00625
0.01999
0.025
0.025
0.025
0.03125
0.03125
0.025
0.0175
0.025
0.03125
0.
0.03125
0.0175
0.0175
0.
0.0175
0.0175
0.
0.02374
0.0175
0.02374
0.025
0.03125
0.0175
0.025
0.03125
0.02374
0.03125
0.0175
0.0175
0.
0.
0.0175
0.02374
0.025
0.03125
0.025
0.0175
0.02875
0.025
0.02374
0.03125
0.01999
0.0175
0.025
0.03125
0.045
0.06624
0.025
0.025
0.03125
0.0175
0.02875
0.
0.02875
0.0175
0.0175
0.02374
0.
0.01999
0.0175
0.03125
0.02374
0.045
0.06624
0.02875
0.02374
0.0175
0.02875
0.01999
0.
0.02374
0.025
0.0175
0.03125
0.03125
0.02374
0.0175
0.0175
0.03125
0.
0.03125
0.02374
0.0175
0.0175
0.01999
0.02875
0.02374
0.02374
0.02374
0.
0.01999
0.0175
0.03125
0.02875
0.045
0.03125
0.06624
0.045
0.06624
0.02875
0.
0.0175
0.0175
0.
0.
0.02374
0.0175
0.0175
0.02374
0.02374
0.02374
0.02875
0.01999
0.02374
0.01999
0.03125
0.02875
0.045
0.02374
0.06624
0.01999
0.03125
0.045
0.06624
0.
0.02374
0.02374
0.02374
0.03125
0.045
0.06624
0.02875
0.02875
0.02374
0.02374
0.01999
0.02875
0.03125
0.0175
0.045
0.01999
0.03125
0.06624
0.01999
0.03125
0.045
0.06624
0.01999
0.02374
0.02374
0.045
0.01999
0.03125
0.03125
0.045
0.045
0.06624
0.06624
0.03125
0.045
0.06624
0.02875
0.02374
0.01999
0.03125
0.045
0.06624
0.06624
0.0375
0.01125
0.0175
0.0375
0.02999
0.01125
0.06125
0.0175
0.08124
0.02999
0.0375
0.01125
0.0375
0.0175
0.01125
0.02999
0.0375
0.0175
0.06125
0.01125
0.02999
0.08124
0.06125
0.0175
0.06125
0.02999
0.0775
0.06125
0.08124
0.02999
0.08124
0.00749
0.08124
0.03125
0.03375
0.0775
0.02999
0.0775
0.0375
0.02999
0.0375
0.00749
0.0375
0.01125
0.03125
0.0175
0.0375
0.03375
0.0375
0.02999
0.01125
0.01125
0.06125
0.0175
0.0375
0.0375
0.01125
0.0375
0.0775
0.0175
0.01125
0.01125
0.02999
0.02999
0.0175
0.06125
0.00749
0.02999
0.03125
0.0775
0.06125
0.03375
0.08124
0.01125
0.0175
0.01125
0.0175
0.0775
0.02999
0.02999
0.02999
0.00749
0.0175
0.03125
0.02999
0.03375
0.02999
0.02999
0.08124
0.08124
0.06125
0.0375
0.08124
0.01125
0.02999
0.0775
0.00749
0.02999
0.06125
0.02999
0.08124
0.00749
0.03125
0.03125
0.03375
0.0175
0.02999
0.02999
0.02999
0.02999
0.06125
0.0175
0.0775
0.03375
0.00749
0.0775
0.02999
0.02999
0.06125
0.03125
0.00749
0.03375
0.00749
0.02999
0.0775
0.03125
0.02999
0.02999
0.08124
0.03375
0.00749
0.03125
0.03375
0.02999
0.0775
0.06125
0.02999
0.06125
0.02999
0.08124
0.00749
0.08124
0.03125
0.0775
0.02999
0.0775
0.08124
0.03125
0.03375
0.02999
0.02999
0.00749
0.00749
0.03125
0.03375
0.03125
0.02999
0.03375
0.02999
0.02999
0.03375
0.02999
0.0775
0.02999
0.00749
0.03125
0.03375
0.02999
0.0175
0.0175
0.00249
0.0175
0.00499
0.00249
0.02374
0.00499
0.03875
0.02374
0.03875
0.03999
0.0175
0.00249
0.00249
0.00499
0.02374
0.0175
0.03875
0.0175
0.03999
0.00249
0.00499
0.00499
0.02374
0.02374
0.03875
0.0175
0.03875
0.03999
0.00249
0.03999
0.00499
0.03624
0.02875
0.02374
0.03624
0.03375
0.02875
0.00249
0.0175
0.0175
0.00249
0.0175
0.03999
0.0175
0.00249
0.00499
0.00499
0.02374
0.03624
0.02374
0.03875
0.0175
0.03999
0.0175
0.03624
0.00249
0.03375
0.02875
0.03875
0.00124
0.00499
-0.00374
0.03375
0.02374
0.03875
-0.0125
0.00124
0.03999
0.00249
0.03624
0.00499
-0.00374
0.0175
0.02374
-0.0125
0.00249
0.03875
0.00499
0.03999
0.02374
0.00249
0.00249
0.03875
0.03999
0.03624
0.03875
0.02875
0.03624
0.03375
0.03624
0.00124
0.02875
0.00499
0.03375
-0.00374
0.02374
0.00124
0.03875
-0.0125
0.03999
-0.00374
-0.0125
0.00124
0.03624
-0.00374
-0.0125
0.02875
0.03999
0.02875
0.03375
0.03375
0.00124
0.00124
0.00499
0.02374
0.03875
0.03999
0.00499
0.02875
0.03999
-0.00374
0.02875
-0.0125
0.03375
0.00124
-0.00374
-0.00374
-0.0125
0.03624
0.02374
0.03624
0.03375
0.02875
0.02875
0.00124
0.03375
0.03375
-0.00374
0.00124
-0.0125
-0.00374
-0.0125
0.03624
-0.0125
0.02875
0.03624
0.00124
0.03875
-0.00374
0.03375
0.00124
-0.0125
-0.00374
0.03999
0.03624
0.02875
0.03375
0.00124
-0.00374
-0.0125
0.02875
-0.0125
0.03375
0.00124
-0.00374
-0.0125
-0.01125
-0.0225
0.00625
-0.01125
-0.0225
0.05124
0.00625
0.08749
0.10125
0.05124
0.08749
0.10125
-0.01125
-0.01125
-0.0225
-0.01125
0.00625
-0.0225
-0.01125
-0.01125
0.00625
-0.0225
0.05124
0.00625
0.08749
0.05124
0.08749
0.10125
0.10125
-0.01125
-0.0225
-0.01125
-0.01125
-0.01125
-0.0225
-0.0225
-0.0225
0.00625
0.0625
0.00625
0.05124
0.08749
-0.01125
0.05124
0.10125
0.08749
0.10125
0.0625
0.0625
-0.01125
0.0625
0.00625
0.04874
-0.0225
0.04874
-0.01125
0.0625
-0.0225
-0.00374
0.00625
0.04874
0.05124
0.0625
-0.00374
0.00625
-0.0225
-0.0225
0.04874
0.00625
-0.00374
0.05124
0.08749
-0.03375
0.04874
-0.0425
-0.00374
-0.0225
0.
0.00625
0.00625
-0.03375
-0.0425
-0.03375
0.05124
0.05124
0.05124
0.
0.08749
0.05124
0.08749
0.00625
0.10125
0.05124
0.05124
0.08749
0.08749
0.10125
0.08749
0.0625
0.10125
0.04874
0.10125
-0.0425
0.0625
0.
0.0625
-0.03375
0.10125
-0.00374
0.0625
0.10125
0.04874
-0.00374
0.0625
-0.03375
0.0625
0.08749
-0.03375
0.04874
0.04874
-0.00374
0.04874
-0.0425
-0.00374
-0.03375
0.04874
-0.00374
-0.00374
0.08749
-0.03375
-0.03375
0.10125
-0.0425
-0.0425
0.
0.
-0.0425
-0.0425
0.04874
0.
-0.00374
0.
-0.00374
-0.03375
-0.03375
0.10125
-0.0425
-0.0425
0.
0.
-0.03375
0.0625
-0.0425
0.04874
-0.0425
0.
0.
-0.00374
-0.03375
-0.0425
0.
0.
0.0625
0.04874
-0.00374
-0.03375
-0.0425
0.
0.01624
0.02999
0.03375
0.01624
0.03125
0.01624
0.01624
0.04125
0.02999
0.04625
0.03375
0.02999
0.03375
0.01624
0.03125
0.06499
0.02999
0.03375
0.01624
0.04125
0.04625
0.02999
0.01624
0.03375
0.02999
0.02999
0.03125
0.03125
0.03375
0.01624
0.06499
0.04125
0.01624
0.07
0.02999
0.05124
0.02999
0.03375
0.01875
0.01624
0.04625
0.00124
0.02999
0.03125
0.01624
0.00999
0.03375
0.04125
0.02999
0.03125
0.03375
0.03375
0.04125
0.03125
0.04625
0.04125
0.01624
0.06499
0.04625
0.07
0.01624
0.06499
0.02999
0.03125
0.03375
0.07
0.03125
0.04125
0.04125
0.04625
0.03125
0.05124
0.04125
0.01875
0.04625
0.00124
0.03125
0.06499
0.04125
0.07
0.06499
0.04625
0.07
0.04625
0.05124
0.01875
0.00124
0.06499
0.04125
0.06499
0.01624
0.02999
0.05124
0.02999
0.07
0.03375
0.03375
0.05124
0.03125
0.05124
0.01875
0.00999
0.00999
0.01875
0.07
0.04625
0.05124
0.07
0.01875
0.05124
0.03125
0.03375
0.01875
0.04125
0.06499
0.00124
0.04625
0.03125
0.04625
0.00999
0.07
0.00124
0.05124
0.00999
0.01875
0.06499
0.00124
0.07
0.05124
0.04125
0.01875
0.00999
0.01875
0.00124
0.00124
0.00999
0.00124
0.06499
0.04125
0.07
0.00999
0.00999
0.06499
0.00124
0.04625
0.04625
0.07
0.00999
0.06499
0.06499
0.07
0.05124
0.05124
0.01875
0.01875
0.00124
0.00124
0.05124
0.07
0.00999
0.01875
0.05124
0.00124
0.01875
0.00124
0.00999
0.00999
0.00999
0.02749
0.0375
0.035
0.02749
0.05624
0.02749
0.0375
0.05874
0.0375
0.035
0.03999
0.02749
0.05624
0.0375
0.035
0.05624
0.02749
0.04749
0.05874
0.0375
0.035
0.02749
0.05624
0.02749
0.0375
0.05874
0.02749
0.035
0.035
0.05874
0.03999
0.03999
0.0375
0.05624
0.02749
0.05874
0.035
0.0375
0.03999
0.05624
0.05624
0.04749
0.02749
0.02749
0.0375
0.035
0.04749
0.05874
0.0375
0.02749
0.05124
0.03999
0.0375
0.05874
0.035
0.03999
0.05624
0.05124
0.04749
0.05874
0.03249
0.035
0.03999
0.04749
0.05624
0.04749
0.05124
0.05874
0.0375
0.05124
0.05124
0.03999
0.05624
0.03249
0.035
0.03249
0.03249
0.05124
0.05624
0.03999
0.03624
0.03249
0.03249
0.03249
0.035
0.03249
0.03624
0.03624
0.05624
0.04749
0.03249
0.05874
0.05874
0.04749
0.03999
0.03999
0.05124
0.03249
0.03249
0.03249
0.03624
0.03249
0.03624
0.0425
0.03249
0.03624
0.05124
0.04749
0.04749
0.03249
0.04749
0.05124
0.05124
0.05874
0.03249
0.03999
0.0425
0.03249
0.02749
0.03624
0.0425
0.03624
0.02749
0.0425
0.03249
0.0425
0.03624
0.0375
0.0425
0.035
0.03249
0.05624
0.03249
0.05874
0.0425
0.03999
0.03624
0.05124
0.04749
0.0375
0.03249
0.05124
0.03249
0.03249
0.035
0.03249
0.03624
0.05624
0.03624
0.0425
0.05874
0.0425
0.0425
0.03999
0.0425
0.0425
0.04749
0.05124
0.03249
0.03249
0.03624
0.0425
0.04749
0.05124
0.03249
0.03249
0.03624
0.0425
0.07
0.07
0.07
0.08874
0.08874
0.09375
0.07
0.08874
0.09375
0.09499
0.09499
0.1
0.1
0.07
0.0825
0.0825
0.08874
0.08874
0.07
0.07
0.08874
0.09375
0.08874
0.09499
0.1
0.0825
0.07
0.08874
0.09375
0.09375
0.09375
0.09499
0.09499
0.1
0.1
0.07
0.0825
0.08874
0.0825
0.09375
0.09375
0.09499
0.09499
0.1
0.1
0.09375
0.06875
0.0825
0.0375
0.09499
0.07
0.00625
0.1
0.06875
0.0825
0.0375
0.07
0.09499
0.00625
0.08874
-0.0125
0.0825
0.09375
-0.02374
0.07
0.08874
-0.00249
0.08874
0.09375
0.07
0.06875
0.06875
0.0375
0.06875
0.07
0.00625
0.08874
-0.0125
0.09375
-0.0125
0.09499
0.09499
0.1
-0.02374
0.06875
0.1
0.0825
-0.00249
0.0825
0.08874
0.06875
0.06875
0.06875
0.06875
0.0375
-0.02374
0.0375
-0.00249
0.00625
0.1
0.0375
-0.0125
0.0825
0.00625
0.0375
-0.02374
-0.0125
0.00625
-0.00249
-0.02374
-0.0125
-0.02374
0.0375
-0.00249
0.00625
-0.0125
0.06875
0.0375
-0.02374
0.00625
-0.00249
-0.0125
0.09375
-0.02374
0.09375
0.09499
0.09499
0.09499
-0.00249
0.1
0.0375
0.0825
0.0375
0.00625
-0.0125
0.06875
-0.02374
-0.00249
0.0375
0.00625
0.1
-0.00249
0.00625
0.1
0.00625
0.0825
-0.0125
-0.0125
-0.02374
-0.02374
-0.0125
0.06875
-0.00249
-0.02374
-0.00249
0.0375
-0.00249
0.00625
-0.0125
-0.02374
-0.00249
0.0825
0.06875
0.0375
0.00625
-0.0125
-0.02374
-0.00249
-0.00374
-0.00374
0.00249
0.00249
0.01999
0.01999
0.03999
0.03999
0.04125
0.04125
0.0175
0.0175
-0.00374
-0.00374
-0.00374
-0.00374
0.00249
-0.00374
0.00249
0.00249
0.01999
0.01999
0.01999
0.03999
0.03999
-0.00374
0.04125
0.04125
0.00249
0.0175
0.0175
0.00249
0.01999
-0.00374
0.01999
0.00249
0.03999
0.01999
-0.00374
0.04125
-0.00374
0.03999
0.0175
0.04125
0.00249
0.0175
-0.00374
0.01999
0.03999
0.00249
-0.00374
0.04125
0.00249
0.01999
0.0175
0.00249
0.01999
0.03999
0.01999
0.03999
0.04125
0.03999
0.0175
0.04125
0.04125
0.03999
0.0175
0.04125
0.0175
-0.00374
0.00249
0.03999
0.00249
0.0175
0.04125
0.01999
0.01999
0.0175
0.03999
0.03999
0.04125
0.04125
0.0175
0.0175
0.01999
0.07
0.01999
0.08874
0.0775
0.075
0.01999
0.07999
0.01999
0.07
0.07
0.01999
0.08874
0.07
0.0775
0.075
0.08874
0.01999
0.07999
0.0775
0.07
0.08874
0.075
0.0775
0.07999
0.075
0.01999
0.07999
0.01999
0.07
0.07
0.08874
0.01999
0.08874
0.0775
0.07
0.07
0.01999
0.08874
0.08874
0.01999
0.07
0.0775
0.08874
0.075
0.01999
0.07
0.0775
0.01999
0.07
0.075
0.07999
0.07
0.08874
0.08874
0.0775
0.0775
0.075
0.01999
0.075
0.0775
0.08874
0.07999
0.0775
0.0775
0.08874
0.075
0.0775
0.07999
0.075
0.075
0.07999
0.07999
0.07
0.07999
0.07999
0.075
0.075
0.07999
0.07999
0.08874
0.0775
0.075
0.07999
0.1
0.1
0.08749
0.1
0.05124
0.08749
0.03249
0.03249
0.05124
0.03249
0.03624
0.1
0.08749
0.1
0.08749
0.1
0.05124
0.03249
0.1
0.03249
0.08749
0.05124
0.1
0.03249
0.08749
0.08749
0.03624
0.05124
0.03249
0.05124
0.03249
0.03624
0.03249
0.03249
0.03249
0.05124
0.03624
0.08749
0.03249
0.03624
0.03624
0.03249
0.05124
0.1
0.03249
0.08749
0.03249
0.05124
0.03624
0.03249
0.03249
0.03624
0.1
0.1
0.03249
0.08749
0.03624
0.05124
0.08749
0.03249
0.03249
0.03624
0.05124
0.03249
0.1
0.03249
0.08749
0.05124
0.03624
0.03249
0.03249
0.03624
0.1
0.08749
0.1
0.05124
0.03249
0.08749
0.03249
0.05124
0.03624
0.03249
0.03249
0.03624
0.02374
-0.00374
0.02374
0.
-0.00374
0.00499
-0.00249
-0.0125
0.
0.00499
0.02374
0.02374
-0.00374
0.02374
-0.00374
-0.00374
0.02374
-0.00374
-0.00749
0.
0.
0.00499
0.00124
0.00499
-0.00249
0.02374
0.01875
-0.00249
-0.00374
-0.0125
-0.0125
0.
0.00499
0.02374
0.02374
0.02374
-0.00374
-0.00249
-0.00374
-0.0125
0.02374
-0.00374
0.
0.
0.04125
0.
0.00499
0.00499
-0.00249
-0.00374
-0.0125
-0.00749
-0.00249
0.00124
-0.00749
-0.0125
0.
0.00124
0.
-0.00249
0.02374
-0.0125
0.01875
-0.00374
0.
0.00499
0.
0.00499
0.02374
-0.00249
0.02374
-0.00374
-0.00374
0.
-0.0125
0.
0.00499
-0.00749
0.00499
-0.00249
0.01875
-0.00249
-0.0125
0.00499
0.04125
-0.0125
0.02125
-0.00249
0.00499
-0.0125
-0.00749
-0.00749
-0.00749
0.00124
0.00124
0.00124
0.01875
0.01875
0.04125
0.04125
0.02125
0.02125
0.00499
0.00499
0.02125
0.00499
0.00499
-0.00749
-0.00249
-0.00249
0.00124
0.04125
0.00124
0.00499
-0.00749
-0.0125
-0.00749
-0.00249
0.00124
0.00124
-0.0125
0.01875
0.01875
0.01875
0.04125
0.04125
-0.0125
0.02125
0.00499
-0.00749
0.00124
-0.00749
0.01875
0.01875
0.04125
-0.00749
0.04125
0.04125
0.02125
-0.00749
0.00124
0.02125
0.02125
0.00124
0.01875
0.01875
0.04125
0.02125
0.00499
0.04125
0.00124
0.01875
0.04125
0.02125
0.02125
0.00499
0.02125
0.00499
0.00499
0.01875
0.02125
0.00499
0.00499
0.00499
0.00499
0.04125
0.02125
0.00499
-0.00625
0.
0.00625
-0.00625
-0.00625
0.00499
-0.00625
0.
0.
0.03875
0.
0.00625
0.00625
-0.00625
0.05624
0.00499
0.00499
0.00625
0.03875
0.00499
0.03875
0.05624
0.03875
0.05624
0.05624
-0.00625
0.
-0.00625
0.00625
0.
-0.00625
0.
0.00499
0.00625
0.03875
0.05624
-0.00625
-0.00625
0.
-0.00625
0.
-0.00625
0.
0.06624
0.00625
0.0575
0.0375
0.00499
0.00625
0.0175
0.0225
0.
0.
0.03875
0.00625
0.00625
-0.00625
0.00499
0.00499
0.03875
0.
0.03875
0.06624
0.05624
0.00625
0.0575
0.00499
0.0375
0.06624
0.0175
0.05624
0.00499
0.0225
0.06624
0.03875
0.00625
-0.00625
0.0575
0.06624
0.
0.06624
0.03875
0.00625
0.0575
0.00499
0.0375
0.03875
0.00499
0.03875
0.05624
0.03875
0.05624
0.05624
0.03875
0.05624
0.00625
0.00499
0.06624
0.00499
0.0375
0.03875
0.06624
0.03875
0.05624
0.0575
0.05624
0.0175
0.06624
0.0575
0.06624
0.0575
0.0575
0.0375
0.06624
0.0175
0.0575
0.0225
0.05624
0.0175
0.0225
0.0375
0.0375
0.0575
0.0375
0.03875
0.0375
0.0575
0.0175
0.0175
0.0175
0.03875
0.0225
0.0225
0.03875
0.0225
0.0175
0.03875
0.0375
0.0225
0.06624
0.0225
0.06624
0.0575
0.06624
0.03875
0.0375
0.0575
0.0175
0.0375
0.03875
0.03875
0.0225
0.0375
0.03875
0.0175
0.0175
0.0175
0.0225
0.0225
0.03875
0.03875
0.0225
0.03875
0.0575
0.0375
0.0175
0.0225
0.03875
0.08124
0.08124
0.0925
0.0925
0.09499
0.09499
0.06875
0.06875
0.04374
0.04374
0.045
0.045
0.04874
0.08124
0.08124
0.08124
0.0925
0.07625
0.0925
0.09499
0.09499
0.08124
0.06875
0.04874
0.04374
0.08124
0.045
0.08124
0.0925
0.08124
0.08124
0.09499
0.0925
0.09499
0.06875
0.0925
0.09499
0.115
0.04374
0.09499
0.06875
0.045
0.0925
0.04374
0.125
0.08124
0.04874
0.09499
0.0925
0.08124
0.08124
0.09499
0.0925
0.07625
0.045
0.09499
0.06875
0.09499
0.07625
0.08124
0.04374
0.06875
0.09499
0.06875
0.06875
0.08124
0.04374
0.06875
0.0925
0.045
0.08124
0.04374
0.09499
0.045
0.045
0.115
0.125
0.04874
0.08124
0.04874
0.07625
0.08124
0.09499
0.115
0.07625
0.04374
0.0925
0.09499
0.045
0.115
0.06875
0.115
0.125
0.0925
0.04874
0.08124
0.09499
0.0925
0.04374
0.125
0.08124
0.04874
0.09499
0.07625
0.04874
0.06875
0.08124
0.045
0.08124
0.07625
0.04374
0.07625
0.125
0.09499
0.09499
0.09499
0.115
0.06875
0.125
0.04374
0.04374
0.09499
0.04874
0.04874
0.08124
0.045
0.06875
0.045
0.04374
0.045
0.045
0.04874
0.08124
0.115
0.07625
0.125
0.04874
0.04874
0.115
0.08124
0.08124
0.125
0.08124
0.07625
0.09499
0.07625
0.07625
0.09499
0.09499
0.115
0.115
0.115
0.04874
0.125
0.125
0.125
0.07625
0.09499
0.09499
0.115
0.115
0.125
0.125
0.08124
0.07625
0.09499
0.115
0.125
0.10875
0.08624
0.03249
0.10875
0.00124
0.10875
0.10875
0.08624
0.08624
0.03249
0.0175
0.00124
0.03249
0.01624
0.0175
0.00124
0.08624
0.10875
0.03249
0.08624
0.00124
0.0175
0.03249
0.01624
0.00124
0.10875
0.0175
0.10875
0.08624
0.01624
0.08624
0.03249
0.00124
0.10875
0.08624
0.0175
0.10875
0.01624
0.08624
0.10875
0.08624
0.03249
0.03249
0.00124
0.00124
0.0175
0.0175
0.01624
0.10875
0.08624
0.03999
0.10875
0.05375
0.08624
0.01999
0.03249
0.01125
0.01624
0.0175
0.00499
0.01624
-0.00625
0.03249
0.00124
0.0175
0.01624
0.03249
0.00124
0.0175
0.01624
0.03249
0.10875
0.03999
0.00124
0.05375
0.0175
0.01624
0.03999
0.03999
0.05375
0.05375
0.03999
0.01999
0.03999
0.01125
0.05375
0.10875
0.05375
0.00499
0.01999
0.08624
0.01999
0.03249
0.01125
0.00124
0.00499
0.03999
0.0175
-0.00625
0.01624
0.03999
-0.00625
0.00124
0.03999
0.01999
0.08624
0.01624
0.05375
0.01125
0.01999
0.01999
0.01125
0.05375
0.01125
0.01125
0.01999
0.03999
0.00499
0.00499
0.01125
0.05375
0.00499
-0.00625
-0.00625
0.00499
0.01999
-0.00625
0.01125
0.00499
0.0175
-0.00625
0.01624
-0.00625
0.05375
0.01999
0.00499
0.03249
0.03999
0.00124
-0.00625
0.0175
0.05375
0.01624
0.01999
0.03999
0.03999
0.05375
0.03999
0.05375
0.01125
0.01999
0.01125
0.01999
0.05375
0.00499
0.01125
0.01999
0.00499
-0.00625
0.01125
0.00499
-0.00625
0.01125
0.00499
-0.00625
-0.00625
0.00499
-0.00625
-0.00374
0.00999
0.035
-0.00374
0.06875
0.05999
0.00999
0.03375
0.035
-0.00374
-0.00374
0.06875
-0.00374
0.05999
-0.00374
0.03375
0.00999
-0.00374
0.00999
0.035
0.00999
0.00999
0.06875
0.035
0.05999
-0.00374
0.03375
0.06875
0.00999
0.05999
0.035
0.03375
-0.00374
0.06875
0.05999
0.00999
0.035
0.06875
-0.00374
-0.00374
0.05999
0.00999
0.00999
0.035
0.035
0.06875
0.06875
0.05999
0.05999
0.03375
-0.00374
0.0175
0.0175
0.02125
0.00999
0.02125
0.0225
0.035
0.0225
0.0175
-0.00124
0.06875
0.05999
-0.00249
0.03375
-0.00374
0.03375
0.0175
0.03375
0.035
0.0175
0.035
0.03375
0.02125
0.06875
0.0175
0.0225
0.05999
0.02125
0.0175
0.00999
0.03375
0.0175
-0.00124
-0.00374
-0.00249
0.0175
0.02125
0.0225
0.0175
0.0175
-0.00124
0.02125
0.0225
0.0175
0.00999
0.0175
0.035
0.00999
0.035
0.06875
0.05999
0.035
0.06875
0.02125
0.02125
0.0225
0.05999
0.0225
0.0175
0.03375
0.0175
0.0175
-0.00124
-0.00124
0.0175
-0.00249
-0.00124
-0.00249
-0.00249
0.02125
0.06875
0.0225
0.03375
0.0175
-0.00124
0.05999
-0.00124
0.03375
-0.00249
0.0175
-0.00249
0.0225
0.02125
0.0175
0.02125
-0.00249
-0.00124
0.0225
0.0175
0.06875
-0.00249
-0.00124
0.05999
-0.00249
0.0175
0.0175
0.02125
0.02125
0.0225
0.0225
0.0225
0.0175
0.0175
0.03375
-0.00124
-0.00124
0.0175
-0.00124
-0.00249
-0.00249
-0.00249
0.0175
0.02125
0.0225
0.0175
-0.00124
-0.00249
0.03999
0.07249
0.08124
0.075
0.03999
0.03375
0.07249
0.035
0.08124
0.075
0.03375
0.03999
0.07249
0.03999
0.03999
0.07249
0.08124
0.08124
0.075
0.075
0.03375
0.03375
0.035
0.03999
0.03999
0.03999
0.07249
0.07249
0.08124
0.08124
0.03999
0.075
0.075
0.03375
0.03375
0.035
0.035
0.03999
0.035
0.03999
0.03999
0.035
0.03999
0.07249
0.03999
0.07249
0.07249
0.07249
0.08124
0.08124
0.08124
0.075
0.075
0.075
0.03375
0.03375
0.03375
0.035
0.035
0.035
0.07249
0.07249
0.07249
0.08124
0.07249
0.08124
0.08124
0.075
0.075
0.03375
0.03375
0.08124
0.035
0.035
0.08124
0.075
0.03375
0.035
0.075
0.03375
0.035
0.075
0.03375
0.035
0.01875
0.01875
0.03249
0.0225
0.03249
0.00625
0.0225
-0.00499
0.00625
0.00749
0.01875
-0.00499
0.03249
0.0225
0.00749
0.01875
0.03249
0.05375
0.01875
0.05375
0.0225
0.00625
0.00625
-0.00499
0.01875
0.06624
0.03249
0.03999
0.03249
0.01875
0.01875
0.01875
0.01875
0.03249
0.03249
0.03249
0.0225
0.0225
0.01875
0.00625
0.01875
0.03249
0.03249
-0.00499
0.0225
0.0225
0.00625
0.00749
0.00625
-0.00499
-0.00499
0.00749
0.00749
0.01875
0.06624
0.03249
0.03999
0.0225
0.01875
0.05375
0.05375
0.00625
0.03249
0.0225
0.06624
0.01875
0.03999
0.01875
0.00749
0.03249
0.0225
0.01875
0.00625
0.03249
0.0225
0.0225
0.03249
0.00625
0.00625
0.01875
0.01875
-0.00499
-0.00499
0.03249
0.06624
0.05375
0.00625
-0.00499
-0.00499
-0.00499
0.00749
-0.00499
0.00625
0.01875
0.00749
-0.00499
0.00749
0.05375
0.06624
0.05375
0.03999
0.06624
0.01875
0.03999
0.05375
0.05375
0.01875
0.0225
0.06624
0.03249
0.00625
0.03999
0.01875
0.01875
0.06624
0.03249
0.01875
-0.00499
0.00749
0.00749
0.03999
0.01875
0.03249
0.01875
0.00749
0.03999
0.01875
0.00749
0.00749
0.06624
0.05375
0.03999
0.03249
0.06624
0.03249
0.05375
0.03999
0.06624
0.05375
0.01875
0.01875
0.03249
0.03249
0.01875
0.01875
0.05375
0.01875
0.06624
0.03999
0.03999
0.01875
0.03249
0.06624
0.01875
0.01875
0.03999
0.05375
0.01875
0.06624
0.03249
0.01875
0.03999
0.01875
0.03249
0.01875
0.01875
0.03249
0.01875
0.00875
0.00875
0.00249
0.00875
0.00249
0.00249
0.01499
0.01499
0.0575
0.0575
0.05624
0.05624
0.00875
0.00249
0.01499
0.0575
0.00875
0.05624
0.00249
0.05624
0.00875
0.00249
0.00875
0.00875
0.01499
0.00249
0.00875
0.0575
0.00249
0.01499
0.05624
0.01499
0.0575
0.05624
0.0575
-0.02374
0.05624
0.05624
0.01499
-0.02374
0.05624
-0.00124
0.0575
0.01499
-0.00249
0.05624
0.0575
0.05624
0.05624
0.02374
-0.02374
0.05624
-0.00124
0.05624
0.00875
-0.00249
-0.02374
0.00249
-0.02374
-0.00124
0.01499
0.00875
-0.00249
0.00249
-0.02374
0.02374
-0.02374
-0.00124
0.03999
0.00875
-0.00124
0.05499
0.00249
-0.00249
-0.00249
0.01499
0.02374
0.03999
0.01499
0.05499
0.00249
0.0575
0.02374
0.0575
-0.00124
-0.00124
0.05624
0.02374
0.0575
0.00875
0.03999
0.05624
0.05499
0.05624
0.05624
0.00875
0.05624
0.03999
0.05624
0.05499
-0.02374
-0.00124
-0.00249
0.02374
0.03999
0.05499
0.01499
0.05624
0.0575
0.03999
-0.00249
0.05499
-0.00249
0.05624
0.05624
0.02374
0.05624
0.00249
-0.02374
0.00249
-0.00124
0.02374
0.03999
-0.02374
-0.00249
0.05499
-0.00124
0.01499
0.02374
-0.00249
0.0575
0.03999
0.03999
0.01499
0.02374
0.05499
0.0575
0.03999
-0.02374
0.05624
0.05499
-0.00124
0.05624
0.05624
0.05624
-0.02374
-0.02374
-0.00124
-0.00124
-0.02374
-0.00249
-0.00249
0.05499
0.02374
-0.00124
0.02374
0.03999
-0.00249
0.03999
0.05499
0.05499
0.02374
0.03999
0.05499
-0.00249
0.02374
0.03999
0.05499
0.06374
0.06374
0.0575
0.06374
0.06374
0.0575
0.04125
0.02999
0.06374
0.01374
0.0575
0.06374
0.0575
0.04125
0.0575
0.04125
0.02999
0.02999
0.04125
0.01374
0.06374
-0.00625
0.06374
0.0575
0.04125
-0.00625
0.06374
0.02999
0.0575
0.04125
0.01374
-0.01875
0.02999
0.04125
-0.025
-0.03125
0.02999
-0.0425
-0.00625
0.01374
-0.02125
-0.00625
-0.01875
-0.01875
0.02999
-0.025
-0.01875
0.01374
0.0575
-0.025
0.04125
-0.00625
-0.01875
0.02999
-0.025
0.01374
-0.03125
-0.00625
-0.0425
-0.02125
-0.01875
0.06374
-0.01875
0.0575
0.06374
0.04125
0.0575
0.01374
0.02999
0.0575
0.01374
0.04125
0.06374
0.06374
-0.00625
0.04125
0.0575
-0.03125
0.02999
-0.00625
0.04125
0.02999
0.02999
0.01374
0.01374
0.06374
-0.00625
-0.03125
0.01374
-0.01875
0.01374
-0.0425
0.0575
-0.025
-0.00625
-0.02125
0.04125
-0.03125
-0.0425
-0.01875
0.02999
-0.02125
0.01374
0.0575
-0.00625
-0.00625
-0.01875
0.04125
-0.01875
-0.01875
-0.01875
-0.01875
-0.025
-0.025
-0.03125
-0.01875
-0.03125
-0.0425
-0.025
-0.025
-0.02125
-0.03125
-0.03125
-0.01875
-0.0425
-0.0425
-0.00625
-0.025
-0.02125
-0.01875
-0.01875
-0.025
0.02999
-0.0425
-0.03125
-0.0425
-0.02125
-0.0425
-0.025
-0.02125
-0.01875
-0.02125
-0.01875
-0.03125
-0.01875
-0.0425
0.01374
-0.02125
-0.01875
-0.00625
-0.02125
-0.01875
-0.025
-0.01875
-0.03125
-0.03125
-0.0425
-0.0425
-0.02125
-0.02125
-0.01875
-0.01875
-0.01875
-0.025
-0.03125
-0.0425
-0.02125
-0.01875
-0.00749
-0.00749
-0.01374
-0.01374
-0.00749
-0.0125
-0.00749
-0.00749
-0.01374
-0.00749
-0.0125
-0.00625
-0.01374
-0.00625
-0.0125
-0.01374
-0.01624
-0.01374
-0.0125
-0.0225
-0.0125
-0.00625
-0.00625
-0.01624
-0.01624
-0.0225
-0.01624
-0.00749
-0.0225
-0.00625
-0.01624
-0.0225
-0.00749
-0.0125
-0.0125
-0.01374
-0.0125
-0.0125
0.00374
-0.00625
0.00625
-0.0225
-0.01624
-0.01374
-0.00749
-0.0125
-0.00625
0.00374
-0.00625
-0.00749
-0.0125
0.00374
-0.01374
-0.01624
-0.01624
-0.00749
0.00625
-0.00749
-0.01374
-0.01374
-0.0225
0.00875
-0.0125
-0.0125
-0.01374
-0.00625
-0.0125
0.00374
-0.00749
-0.00625
-0.01624
-0.0225
0.00625
-0.01374
-0.0225
-0.0125
-0.01624
0.00875
0.00875
-0.00625
0.02624
0.02624
0.03875
0.03875
0.00625
-0.0225
-0.00749
0.00875
0.02624
-0.01374
0.03875
-0.0125
-0.0125
-0.0125
-0.01624
-0.0125
0.02624
-0.0225
0.00374
0.00374
0.00374
0.00625
-0.0125
0.00625
-0.0225
0.00374
-0.00625
0.00625
-0.01624
-0.0125
-0.0225
-0.0125
-0.0125
-0.00625
-0.0125
-0.0125
0.00875
0.00625
0.00875
0.00875
0.02624
-0.0125
0.02624
0.03875
-0.01624
0.00374
0.03875
-0.00625
-0.0225
0.00374
0.03875
0.00625
0.00374
0.00625
-0.01624
0.02624
-0.0225
0.03875
0.00374
-0.0125
0.00875
0.00875
0.00625
0.02624
0.00875
-0.0125
0.03875
0.00374
0.00875
0.00625
0.00625
0.02624
0.00875
0.03875
0.00875
0.02624
0.02624
0.02624
0.03875
0.00374
0.00625
0.03875
0.00875
0.03875
0.02624
0.03875
0.02624
0.03875
0.00499
-0.01875
0.00499
0.00499
-0.03375
-0.01875
-0.01875
0.0175
-0.01875
-0.03375
-0.03375
0.04749
-0.01875
-0.01875
0.00499
0.0175
-0.01875
0.04749
-0.03375
0.04125
0.0175
0.00499
0.05624
-0.01875
0.05999
0.03999
0.00499
0.02125
-0.03375
0.00499
0.04125
-0.01875
0.00499
0.0175
0.00499
0.01624
0.05624
0.04749
-0.01875
0.00499
-0.01875
-0.01875
-0.01875
0.00499
0.00499
-0.01875
0.04749
0.00499
-0.03375
-0.01875
0.0175
0.0175
0.04749
0.04749
0.04125
-0.01875
0.05624
-0.03375
-0.01875
-0.01875
0.04125
0.0175
-0.03375
0.05624
0.04749
-0.01875
0.04125
0.05999
-0.03375
0.00499
-0.01875
-0.03375
-0.03375
0.05624
-0.01875
-0.01875
0.05999
0.0175
0.03999
0.04749
-0.03375
0.02125
-0.01875
0.01624
0.0175
0.04749
0.05999
0.04125
0.03999
0.05624
0.02125
0.05999
0.01624
0.03999
0.03999
-0.01875
0.02125
-0.01875
0.01624
0.05999
0.0175
-0.01875
0.04749
0.03999
0.0175
0.04125
0.02125
0.05624
-0.03375
-0.03375
-0.01875
0.04125
-0.01875
0.01624
0.04125
0.0175
0.05624
0.04749
0.04749
0.0175
0.05999
0.04749
0.03999
0.04125
0.02125
0.05624
0.01624
0.05999
0.03999
0.02125
0.02125
0.04125
0.04125
0.01624
0.01624
0.05624
0.05999
0.05999
0.0175
0.04125
0.03999
0.05624
0.02125
0.03999
0.05999
0.02125
0.01624
0.03999
0.01624
0.05624
0.02125
0.05999
0.01624
0.03999
0.02125
0.05624
0.04749
0.01624
0.05999
0.03999
0.02125
0.01624
0.04125
0.05624
0.05999
0.03999
0.02125
0.01624
0.0175
0.02624
0.0175
0.03624
0.0175
0.02624
0.02624
0.03624
0.0175
0.0175
0.03624
0.0175
0.02624
0.03624
0.02624
0.06875
0.03624
0.03624
0.03624
0.03624
0.06499
0.0175
0.03624
0.06875
0.02624
0.06875
0.0175
0.03624
0.02624
0.03624
0.06499
0.06875
0.06875
0.03624
0.06875
0.03624
0.06499
0.06499
0.0175
0.06499
0.06875
0.02624
0.06499
0.07374
0.03624
0.02624
0.06875
0.03624
0.06875
0.06875
0.06875
0.06499
0.0175
0.09
0.06499
0.02624
0.09375
0.06499
0.06499
0.08749
0.06875
0.03624
0.0175
0.06499
0.07374
0.07374
0.0175
0.03624
0.06875
0.0175
0.02624
0.06875
0.03624
0.03624
0.06499
0.06499
0.06875
0.06499
0.06875
0.06499
0.07374
0.02624
0.07374
0.07374
0.06875
0.09
0.06499
0.06499
0.09375
0.07374
0.03624
0.07374
0.06875
0.06875
0.09
0.06499
0.02624
0.09375
0.06499
0.03624
0.03624
0.03624
0.09
0.08749
0.06875
0.09375
0.03624
0.06499
0.08749
0.09
0.06875
0.09375
0.09
0.08749
0.09
0.06499
0.09375
0.03624
0.07374
0.08749
0.03624
0.09
0.06875
0.09375
0.06875
0.06499
0.08749
0.08749
0.07374
0.09375
0.06499
0.09
0.08749
0.09375
0.09
0.0175
0.06875
0.02624
0.08749
0.03624
0.06499
0.09375
0.03624
0.08749
0.06875
0.06499
0.07374
0.06875
0.06875
0.09
0.06499
0.09375
0.07374
0.09
0.08749
0.09375
0.08749
0.06499
0.06875
0.07374
0.09
0.06499
0.09375
0.07374
0.08749
0.09
0.09375
0.08749
0.07249
0.07249
0.035
0.07249
0.035
0.07249
0.035
0.035
0.07249
0.035
0.035
0.04125
0.04125
0.05124
0.07249
0.07249
0.07249
0.035
0.0625
0.035
0.04125
0.07249
0.05124
0.07249
0.035
0.035
0.0625
0.035
0.07124
0.035
0.035
0.0775
0.035
0.035
0.07249
0.035
0.04125
0.07249
0.05124
0.04125
0.035
0.035
0.07124
0.04125
0.05124
0.035
0.0775
0.05124
0.04125
0.05124
0.04125
0.03624
0.0625
0.05124
0.07249
0.0625
0.04125
0.035
0.0625
0.035
0.05124
0.035
0.035
0.035
0.035
0.07124
0.04125
0.035
0.05124
0.045
0.04125
0.0625
0.04125
0.0775
0.0625
0.0625
0.04125
0.04125
0.07124
0.05124
0.0625
0.07249
0.0775
0.05124
0.05124
0.04125
0.0625
0.05124
0.04125
0.03624
0.0625
0.045
0.04625
0.04625
0.03624
0.0625
0.04125
0.045
0.07124
0.07124
0.0775
0.0775
0.07124
0.03624
0.035
0.04125
0.045
0.04625
0.04625
0.0775
0.04125
0.03624
0.045
0.07124
0.03624
0.0775
0.04125
0.045
0.03624
0.04625
0.07124
0.045
0.04625
0.0625
0.07124
0.07124
0.04625
0.07124
0.04125
0.0775
0.0775
0.04125
0.07124
0.04125
0.03624
0.0775
0.035
0.03624
0.0775
0.04125
0.045
0.045
0.04125
0.04625
0.05124
0.04125
0.03624
0.04625
0.0625
0.03624
0.045
0.045
0.04625
0.03624
0.07124
0.0775
0.0775
0.045
0.04125
0.04625
0.04125
0.03624
0.04625
0.03624
0.045
0.045
0.04625
0.04625
0.03999
0.03999
0.05249
0.03999
0.02875
0.03999
0.03999
0.03999
0.05249
0.03999
0.02875
0.03999
0.03999
0.0175
0.05249
0.05249
0.00999
0.05249
0.05249
0.03999
0.0175
0.02875
0.05249
0.0175
0.03999
0.02875
0.03999
0.05249
0.05249
0.0175
0.02875
0.02875
0.05249
0.00999
0.0175
0.02875
0.02999
0.05249
0.02875
0.05249
0.02875
0.0175
0.0175
0.0175
0.00999
0.00999
0.03999
0.00999
0.05249
0.03999
0.00999
0.02999
0.05249
0.02999
0.02875
0.00999
0.0175
0.02999
0.02999
0.02999
0.02999
0.02875
0.02875
0.0175
0.0175
0.0175
0.00999
0.00999
0.00999
0.02999
0.02999
0.02875
0.02875
0.00999
0.00999
0.02999
0.0175
0.02999
0.00999
0.02999
0.02999
0.0175
0.00999
0.02999
0.0675
0.0675
0.06624
0.06624
0.05999
0.05999
0.0675
0.045
0.06624
0.0675
0.05999
0.03999
0.045
0.045
0.0675
0.0675
0.0675
0.06624
0.06624
0.05999
0.0675
0.05999
0.045
0.03999
0.0675
0.03999
0.03624
0.06624
0.03624
0.06624
0.06624
0.0675
0.05124
0.05999
0.035
0.05124
0.045
0.0675
0.05999
0.0225
0.035
0.045
0.03999
0.0675
0.03999
0.03624
0.0675
0.06624
0.03624
0.06624
0.03999
0.06624
0.03624
0.05999
0.05999
0.0225
0.05999
0.05124
0.045
-0.00499
0.05999
0.045
0.06624
-0.00499
0.03624
0.05999
0.035
0.05124
0.03999
-0.03999
0.0225
0.035
0.045
0.06624
-0.03999
0.03999
-0.05249
-0.00499
0.05124
-0.03999
0.035
0.03624
0.045
-0.05249
0.0675
0.03624
0.06624
0.05999
0.05999
0.0225
0.045
0.0225
-0.05249
0.03999
0.03624
0.05124
0.045
0.045
0.05124
0.03999
0.05124
0.05124
0.03999
0.035
0.03624
0.03624
-0.00499
0.03999
-0.03999
0.03624
0.045
0.05124
0.035
0.035
0.035
-0.00499
0.0225
0.0225
0.05124
0.0225
0.035
-0.00499
0.03999
-0.03999
-0.00499
0.03624
0.03999
-0.05249
-0.03999
0.03624
-0.05249
0.035
-0.03999
-0.00499
-0.05249
0.0225
-0.03999
-0.00499
0.0225
-0.05249
0.05124
0.05124
0.035
0.035
-0.05249
-0.03999
0.0225
-0.05249
-0.00499
0.0225
-0.03999
0.0225
-0.05249
-0.00499
-0.00499
0.05124
-0.03999
0.035
-0.05249
0.0225
-0.00499
-0.03999
-0.00499
-0.05249
-0.03999
-0.03999
-0.05249
-0.05249
-0.04125
-0.03999
-0.04125
-0.04125
-0.03999
-0.03875
-0.04125
-0.03875
-0.03999
-0.02125
-0.03875
-0.00749
-0.04125
-0.02125
-0.00749
-0.04125
-0.01499
-0.04125
-0.03999
-0.03875
-0.03999
-0.02125
-0.03875
-0.00749
-0.04125
-0.02125
-0.04125
-0.03999
-0.02125
-0.04125
-0.03999
-0.03999
-0.01999
-0.00749
-0.03875
-0.00124
-0.03999
-0.01499
-0.03999
-0.04125
-0.03875
0.01499
-0.03875
-0.02125
-0.01499
-0.02125
-0.00749
-0.00749
-0.04125
-0.03875
-0.01499
-0.03999
-0.03875
-0.02125
-0.03875
-0.00749
-0.02125
-0.02125
-0.01499
-0.01999
0.02374
-0.01999
-0.00124
-0.03999
-0.00124
-0.02125
-0.04125
0.01499
0.01499
-0.03875
0.02374
0.01374
-0.04125
-0.03999
-0.01624
-0.00749
-0.00749
-0.01499
-0.00749
-0.01999
-0.00124
-0.01499
-0.01499
-0.01999
-0.02125
-0.00124
-0.00749
-0.00749
-0.01999
-0.03875
-0.01499
-0.00124
0.01374
-0.01999
-0.01499
-0.01999
0.01499
-0.01624
0.02374
0.01374
-0.01624
-0.03999
-0.00124
-0.00124
-0.01999
-0.01999
0.01499
0.01499
0.01499
0.02374
-0.02125
0.01499
-0.01499
-0.00749
0.02374
-0.01499
0.02374
0.01374
0.02374
0.02374
-0.01499
0.01374
0.01374
0.01374
-0.00124
-0.01624
-0.01624
-0.03875
0.01499
-0.01999
-0.01624
-0.00124
-0.00124
-0.02125
0.02374
-0.01999
0.01499
-0.01624
-0.00124
-0.01999
0.01374
0.01499
0.01499
0.01374
-0.01624
0.02374
-0.00124
-0.01624
0.01374
0.01499
-0.01624
0.02374
0.02374
0.01374
-0.00749
0.01374
0.02374
-0.01624
-0.01624
-0.01499
0.01374
-0.01624
-0.01999
-0.00124
0.01499
0.02374
0.01374
-0.01624
-0.045
-0.045
-0.045
-0.045
-0.0125
-0.045
-0.045
0.
-0.045
-0.0125
-0.045
0.
-0.00249
-0.045
-0.045
-0.0125
-0.0125
-0.045
-0.045
-0.045
-0.045
0.0175
-0.045
-0.0125
0.
-0.0125
-0.00249
-0.045
0.
-0.0125
-0.00249
0.
0.0175
-0.045
-0.00249
0.0175
0.
0.
-0.045
-0.00249
-0.00249
0.01374
-0.045
0.0175
-0.0125
-0.045
0.01374
-0.0125
-0.02125
-0.0125
-0.03375
0.0175
0.
-0.00875
-0.02125
-0.00249
-0.00249
0.0175
0.01374
0.
-0.02125
-0.03375
0.01875
0.0175
0.01374
0.02875
0.01374
-0.02125
-0.02125
-0.03375
-0.03375
-0.03375
-0.045
-0.00875
-0.045
0.01875
-0.0125
-0.045
0.0175
0.
-0.045
-0.00875
-0.045
0.01374
-0.0125
-0.00249
0.02875
0.0175
0.01374
-0.045
0.01875
0.01374
0.02875
-0.02125
-0.02125
-0.045
-0.03375
-0.00875
-0.02125
0.
0.01374
0.01875
-0.03375
-0.03375
-0.00875
-0.00249
-0.02125
0.01875
-0.00875
-0.045
0.01875
0.02875
-0.0125
0.0175
0.
-0.0125
-0.00249
0.
0.01374
-0.00249
-0.00875
0.0175
0.01875
0.
0.02875
-0.03375
-0.00249
-0.00875
0.01875
0.02875
0.0175
0.02875
-0.00875
0.01374
0.01875
-0.02125
0.02875
-0.03375
-0.00875
0.01875
0.02875
0.02875
-0.02125
-0.03375
-0.00249
-0.00875
0.0175
0.01875
0.02875
0.01374
-0.02125
-0.03375
-0.00875
0.01875
0.02875
0.01374
-0.02125
0.0175
-0.03375
0.02875
0.02875
0.04749
0.04749
0.03125
0.03125
0.01499
0.01499
0.02875
0.00249
0.04749
0.01125
0.03125
0.01499
0.02875
0.00249
0.04749
0.01125
0.02875
0.02875
0.03249
0.03125
0.01875
0.01499
0.01374
0.02875
-0.00875
0.00249
0.04749
0.02875
0.02875
0.03249
0.04749
0.04749
0.01875
0.03125
0.03125
0.02875
0.04749
0.01125
0.01374
0.01499
0.02875
0.04749
0.04749
0.00249
0.03125
0.03125
0.04749
0.01499
0.03249
0.01499
0.03125
0.01875
0.00249
-0.00625
0.01125
0.00249
0.01125
0.03249
0.01125
0.01875
0.01374
0.03249
-0.00625
0.01875
0.03249
0.00249
0.01374
0.01374
0.03125
0.01875
-0.00625
0.01125
0.02875
0.02875
0.01875
-0.0175
0.04749
-0.02374
0.03125
-0.00625
0.01499
0.01499
-0.0175
0.00249
0.00249
0.03125
-0.02125
0.01125
-0.0175
0.01499
0.02875
0.01374
-0.02374
-0.03375
0.01499
0.01374
0.00249
0.01125
-0.00625
-0.00625
0.03249
0.03249
0.01499
0.04749
-0.02374
-0.0175
-0.02374
-0.0175
0.01875
0.00249
0.01374
-0.0175
0.01875
-0.00625
0.01374
-0.02374
-0.00625
0.03249
-0.02374
0.00249
0.03125
-0.00875
0.01499
0.01125
0.00249
0.01125
-0.0175
0.01875
0.01125
-0.0175
0.01875
-0.02374
0.03249
0.03249
-0.02374
0.01125
0.01875
0.01875
0.03249
0.02875
0.01875
0.03249
0.01374
0.01374
0.01374
-0.00625
-0.00625
0.01875
0.01374
-0.0175
-0.0175
-0.00625
-0.02374
-0.0175
-0.02374
0.02875
-0.00625
0.01374
0.04749
-0.0175
0.03125
-0.00625
-0.02374
0.01499
-0.0175
-0.02374
0.00249
-0.02624
-0.00124
-0.02624
0.0375
-0.00124
-0.02624
0.0375
-0.00124
0.04874
-0.02624
0.0575
-0.00124
-0.02624
-0.02624
-0.00124
0.04874
0.0375
-0.02624
0.0375
-0.00124
-0.02624
0.0375
0.0575
-0.00124
-0.02374
0.04874
0.03875
0.01125
0.04874
0.0375
0.03875
-0.02624
0.04874
-0.00124
0.0575
-0.02624
0.0375
0.03875
0.0575
0.04874
0.04874
-0.02624
-0.00124
-0.02624
0.0375
-0.00124
-0.00124
0.04874
0.0375
0.03875
0.0575
0.0575
0.02875
0.04874
0.03249
0.0575
0.03875
0.03875
0.02875
0.03249
0.045
0.0575
0.03249
0.0375
0.045
0.02875
0.0175
0.03875
0.03875
0.02875
-0.02624
0.01875
0.04874
-0.00124
0.03249
-0.00124
0.02875
0.0575
0.03249
0.0375
0.045
0.03249
-0.00124
0.045
0.0375
0.045
0.0375
0.01374
0.0175
0.02875
-0.00124
0.03249
0.0175
0.02875
0.04874
0.04874
0.0175
0.0575
-0.00124
0.03875
0.01374
0.01374
0.0575
0.045
-0.00124
0.0175
0.01374
0.0575
0.02875
0.0175
0.03875
-0.00124
0.04874
0.01374
0.0575
0.01374
0.03875
-0.00625
0.03875
0.02875
0.03249
0.03249
0.045
0.045
0.02875
0.0175
-0.0175
0.03875
0.0175
-0.00124
-0.00124
0.01374
-0.02374
0.02875
0.02875
0.03249
0.03249
0.045
0.0175
0.01374
-0.00124
0.02875
0.03249
0.01374
0.03249
0.03249
0.045
-0.02624
-0.00124
0.045
-0.00124
0.0375
0.045
0.01374
0.0175
0.0175
0.04874
0.0175
-0.00124
-0.00124
0.0575
-0.00124
0.045
0.03875
0.01374
0.0175
0.01374
-0.00124
0.01374
0.02875
0.03249
0.01374
0.045
0.01374
0.0175
0.03249
-0.00124
0.01374
0.01374
0.01374
0.01374
0.01374
0.01374
0.03249
0.01374
0.01374
0.01374
0.01374
0.03249
0.01374
0.03249
0.01374
0.03249
0.01374
0.01374
0.01374
0.
0.03249
0.03249
0.01374
0.01374
0.01374
0.03249
0.01374
0.01374
0.03249
0.
0.03249
0.03249
-0.02875
0.01374
0.01374
0.03249
0.03249
0.01374
0.03249
0.
0.
0.
-0.02875
-0.02875
0.01374
-0.04749
0.
0.
-0.02875
0.
-0.02875
0.
0.01374
-0.04749
-0.02875
-0.04749
0.01374
-0.02875
-0.04749
-0.04749
-0.02875
-0.02875
0.
-0.04749
0.01374
0.
-0.04749
-0.04749
0.01374
-0.04749
-0.02875
-0.04749
0.
0.
0.
-0.02875
-0.02875
-0.02875
-0.04749
-0.02875
-0.04749
-0.04749
-0.04749
-0.02749
-0.02749
-0.00625
-0.02749
0.00499
-0.02749
-0.02749
0.01125
-0.00625
0.00374
-0.02749
-0.02749
-0.00625
-0.02749
-0.02749
0.00499
0.01999
-0.02749
-0.00625
-0.00625
0.00499
-0.02749
-0.02749
-0.00625
-0.00625
-0.02749
-0.00625
-0.00625
-0.02749
0.00499
0.00499
0.01125
0.01125
0.00499
-0.00625
0.01125
-0.00625
0.00499
-0.00625
0.00374
0.01125
0.01125
0.01125
0.00374
0.00374
0.01999
0.00374
0.00499
0.01999
0.00499
0.00499
0.00499
0.00499
0.01125
0.01125
-0.00625
0.00374
0.01125
0.00374
-0.00625
0.01999
0.00374
0.00499
0.01125
0.00374
0.01999
0.00374
0.00499
0.01999
0.01125
0.00374
0.01999
0.01125
0.01125
0.01999
0.00374
0.00374
0.00374
0.01999
0.01999
0.01999
0.01999
0.01999
0.01999
0.04625
0.04625
0.04625
0.0675
0.0675
0.0675
0.04625
0.0675
0.04625
0.04625
0.04625
0.0675
0.04625
0.0675
0.04625
0.04625
0.0675
0.0675
0.03999
0.04625
0.03999
0.0675
0.04625
0.0675
0.0675
0.0675
0.0675
0.0675
0.0675
0.03999
0.0675
0.04625
0.0675
0.0675
0.03999
0.03999
0.0675
0.0675
0.03999
0.03999
0.04625
0.025
0.025
0.03999
0.0675
0.0675
0.03999
0.0675
0.025
0.025
0.025
0.025
0.025
0.01875
0.01875
0.0675
0.0675
0.01875
0.0675
0.025
0.03999
0.01875
0.025
0.01875
0.01875
0.03999
0.0675
0.01875
0.025
0.0675
0.01875
0.025
0.01875
0.01875
0.03999
0.01875
0.025
0.01875
0.03999
0.025
0.01875
0.03999
0.025
0.01875
0.02374
0.00374
0.02374
0.02374
0.02374
0.00374
0.00374
0.00374
0.02374
-0.0175
0.02374
0.00374
0.00374
0.02374
0.02374
0.00374
-0.0175
-0.0175
-0.0175
-0.0175
-0.0175
0.02374
0.00374
-0.00124
-0.0175
0.04125
-0.00124
-0.00124
0.04125
0.00374
0.06875
0.06875
-0.0175
-0.00124
-0.00124
0.04125
0.04125
0.02374
-0.00124
0.02374
0.00374
0.04125
0.02374
0.00374
0.06875
0.00374
-0.0175
-0.00124
-0.0175
0.04125
0.06875
-0.00124
0.06875
-0.0175
0.02374
0.06875
0.04125
-0.00124
0.04125
0.06499
0.06875
0.04125
-0.00124
0.06875
0.06499
0.04125
0.06875
-0.00124
0.06499
0.04125
0.03999
0.06875
0.06875
0.0225
0.06499
0.03999
0.06499
0.06499
-0.0175
0.03999
0.03999
0.00374
0.0225
0.0225
-0.0175
0.06499
-0.00124
0.03999
0.01374
0.03999
0.06499
0.01499
0.0225
0.03999
0.01374
0.0225
-0.00625
0.01374
0.01374
0.0225
0.01499
0.01374
-0.00124
-0.00625
0.01499
0.04125
0.01499
0.06875
0.01499
0.02374
-0.00625
0.00374
0.06499
0.01374
0.03999
0.03999
0.01499
0.0225
-0.00625
0.04125
0.01374
-0.00625
0.01499
0.0225
0.0225
0.01374
0.06499
0.01499
0.03999
0.06499
-0.00625
0.06875
-0.0175
0.0225
0.03999
0.01374
0.0225
-0.00124
0.06499
0.01374
0.04125
0.01499
0.01374
-0.00625
-0.00625
0.01499
0.06875
-0.00625
-0.00625
0.01499
-0.00625
0.03999
0.0225
0.06499
0.01374
0.03999
0.01499
0.0225
-0.00625
0.01374
0.01499
0.06499
-0.00625
0.03999
0.0225
0.01374
0.01499
0.0175
0.0175
0.0175
0.08624
0.0175
0.0175
0.08624
0.0175
0.09
0.0175
0.0175
0.05624
0.04125
0.08624
0.02875
0.0175
-0.00625
0.09
0.08624
0.05624
0.08624
0.04125
0.08624
0.02875
0.09
0.09
0.08624
0.09
0.09
0.08624
0.0175
0.0175
0.09
0.08624
0.05624
0.0175
0.09
0.05624
0.09
0.04125
0.05624
0.02875
0.04125
0.02875
0.05624
0.04125
0.02875
0.08624
0.05624
0.05624
0.04125
0.08624
0.04125
0.02875
0.02875
0.04125
0.09
0.02875
0.05624
0.04125
0.02875
0.08624
0.09
0.05624
0.09
0.05624
0.04125
0.04125
0.02875
0.02875
0.0175
0.08624
0.09
0.05624
0.04125
0.02875
0.05624
0.04125
0.02875
0.02624
0.0575
0.02374
0.03125
0.03125
0.01875
0.02374
0.01875
0.03125
0.02875
0.02875
0.02624
0.05124
0.02374
0.07249
0.02374
0.03125
0.0575
0.01875
0.07374
0.04625
0.05124
0.02374
0.04625
0.04625
0.07249
0.07374
0.01875
0.03125
0.01875
0.02875
0.02624
0.02374
0.02624
0.07374
0.02875
0.03125
0.02875
0.02624
0.05124
0.02374
0.03125
0.05124
0.03125
0.01875
0.05124
0.02374
0.07249
0.07249
0.07374
0.07249
0.07374
0.01875
0.02875
0.01875
0.05124
0.07374
0.02875
0.03125
0.01875
0.02875
0.07249
0.05124
0.07374
0.01875
0.07249
0.02875
0.03125
0.03125
0.05124
0.09499
0.09499
0.08375
0.02875
0.09499
0.08375
0.08375
0.0675
0.0675
0.0675
0.05124
0.0575
0.0575
0.06499
0.09499
0.0575
0.09499
0.06499
0.01875
0.08375
0.06499
0.07874
0.07874
0.05124
0.07874
0.09499
0.07249
0.08375
0.01875
0.02875
0.02875
0.0675
0.07374
0.0575
0.06499
0.0675
0.07874
0.05124
0.09499
0.07249
0.07249
0.07374
0.0575
0.06499
0.09499
0.08375
0.05124
0.08375
0.07374
0.09499
0.07249
0.07249
0.07874
0.07374
0.09499
0.07374
0.08375
0.0675
0.07374
0.0575
0.08375
0.06499
0.08375
0.0675
0.0675
0.09499
0.0575
0.09499
0.06499
0.0675
0.07874
0.0675
0.0575
0.09499
0.07874
0.08375
0.0575
0.08375
0.08375
0.0675
0.0575
0.0675
0.0575
0.0675
0.06499
0.09499
0.06499
0.06499
0.07874
0.06499
0.0575
0.07874
0.0575
0.07874
0.08375
0.07874
0.06499
0.06499
0.0675
0.07874
0.07874
0.0575
0.06499
0.07874
0.11124
0.11124
0.11375
0.11375
0.09
0.09
0.11124
0.11124
0.08749
0.11375
0.11375
0.11124
0.08749
0.11124
0.11124
0.11124
0.11124
0.11124
0.11375
0.09375
0.11124
0.09
0.07374
0.11375
0.11124
0.11375
0.11375
0.11124
0.11375
0.09
0.11375
0.11124
0.09
0.11375
0.09375
0.08749
0.09
0.11375
0.09375
0.08749
0.09
0.09375
0.07374
0.09
0.11375
0.08749
0.09
0.09375
0.07374
0.08749
0.07374
0.09375
0.11375
0.08749
0.08749
0.09
0.09375
0.09
0.07374
0.09
0.08749
0.07374
0.09375
0.09375
0.07374
0.09
0.08749
0.07374
0.09375
0.08749
0.09375
0.09
0.08749
0.08749
0.09375
0.07374
0.07374
0.07374
0.09375
0.08749
0.09375
0.07374
0.07374
0.07374
0.06624
0.06624
0.05375
0.06624
0.01999
0.06624
0.0225
0.06624
0.06624
0.05375
0.06624
0.01999
0.05999
0.05375
0.05375
0.06624
0.05375
0.06624
0.01999
0.06624
0.05375
0.05375
0.01999
0.06624
0.05375
0.01999
0.05375
0.01999
0.06624
0.0225
0.05375
0.0225
0.05375
0.01999
0.01999
0.0225
0.0225
0.06624
0.01999
0.06624
0.0225
0.0225
0.06624
0.05999
0.05999
0.01999
0.05999
0.0225
0.0225
0.05999
0.05999
0.05375
0.06624
0.01999
0.01999
0.0225
0.06624
0.06624
0.06624
0.06624
0.0225
0.05999
0.05375
0.05999
0.01999
0.0225
0.05999
0.06624
0.05999
0.05375
0.06624
0.06624
0.05999
0.05999
0.06624
0.06624
0.06624
0.01999
0.0225
0.0225
0.05999
0.05999
0.06624
0.06624
0.07874
0.07874
0.07874
0.07874
0.06125
0.07874
0.07874
0.07874
0.07874
0.07874
0.0675
0.06125
0.07874
0.04874
0.0675
0.06125
0.01999
0.04874
0.0675
0.01999
0.07874
0.07874
0.07874
0.07874
0.07874
0.07874
0.07874
0.06125
0.06125
0.06125
0.0675
0.0675
0.07874
0.07874
-0.01125
0.07874
0.07874
0.07874
0.07874
-0.01125
0.06125
0.06125
0.07874
0.07874
0.0675
0.06125
0.04874
0.07874
0.06125
0.0675
0.01999
0.06125
0.0675
0.04874
0.04874
0.01999
0.0675
0.0675
0.04874
0.07874
0.04874
0.01125
0.04874
0.01999
0.06125
0.04874
-0.01125
0.01999
0.06125
0.04874
0.0675
-0.01125
0.0675
0.01125
-0.01125
0.04874
0.01999
-0.01125
0.01125
0.01999
0.01125
0.01125
0.03375
0.01125
0.03375
0.03375
0.07874
0.03375
0.05375
0.05375
0.04874
0.07249
0.01999
0.01999
0.03375
0.03375
0.01999
0.0825
0.05375
0.07249
0.01999
0.07249
0.05375
0.05375
0.05375
-0.01125
-0.01125
0.07249
0.07249
0.0825
-0.01125
0.01125
0.0825
-0.01125
0.0825
0.06125
0.0675
-0.01125
0.03375
0.01125
0.05375
0.01125
0.04874
0.01999
0.01125
0.0675
0.01125
0.04874
-0.01125
0.01999
0.07249
0.07249
0.03375
0.0825
0.05375
0.03375
0.03375
0.07249
0.03375
0.0825
0.0825
0.0825
0.05375
0.05375
0.01125
0.05375
0.07249
0.0825
0.03375
-0.01125
0.07249
0.05375
0.01125
0.0825
0.07249
0.03375
0.0825
0.05375
0.07249
0.0825
-0.01125
0.01125
0.07249
0.03375
0.0825
0.05375
0.07249
0.0825
0.09875
0.09875
0.09875
0.09624
0.09875
0.09624
0.05124
0.03125
0.05124
0.02999
0.03125
0.09624
0.09875
0.09875
0.05124
0.09624
0.09624
0.05124
0.09875
0.09875
0.05124
0.09624
0.05124
0.09624
0.03125
0.09875
0.05124
0.02999
0.03125
0.09624
0.03125
0.02999
0.05124
0.09875
0.03125
0.09875
0.03125
0.09875
0.09624
0.02999
0.02999
0.02999
0.035
0.035
0.02999
0.035
0.09875
0.035
0.05124
0.09624
0.09624
0.035
0.035
0.09624
0.05124
0.03125
0.09875
0.09624
0.035
0.09624
0.05124
0.02999
0.03125
0.05124
0.03125
0.05124
0.03125
0.03125
0.03125
0.02999
0.02999
0.035
0.02999
0.035
0.02999
0.02999
0.035
0.035
0.035
0.035
0.05124
0.03125
0.02999
0.035
0.045
0.045
0.045
0.05874
0.045
0.045
0.045
0.045
0.09375
0.045
0.05874
0.045
0.05874
0.045
0.05874
0.09375
0.045
0.09375
0.05874
0.05874
0.05874
0.05874
0.09375
0.045
0.05874
0.11999
0.11999
0.11999
0.05874
0.14499
0.09375
0.12624
0.09375
0.11999
0.05874
0.14499
0.09375
0.045
0.05874
0.14499
0.11999
0.09375
0.045
0.14499
0.09375
0.11999
0.12624
0.11999
0.14499
0.12624
0.14499
0.12624
0.05874
0.12624
0.09375
0.09375
0.11999
0.11999
0.11999
0.09375
0.09375
0.11999
0.11999
0.14499
0.14499
0.14499
0.05874
0.12624
0.14499
0.12624
0.09375
0.12624
0.14499
0.11999
0.12624
0.11999
0.14499
0.12624
0.12624
0.14499
0.14499
0.12624
0.12624
0.12624
0.12125
0.12125
0.12125
0.08124
0.08124
0.0575
0.0575
0.06374
0.12125
0.08124
0.08124
0.0575
0.12125
0.12125
0.08124
0.12125
0.0575
0.08124
0.06374
0.12125
0.12125
0.07874
0.08124
0.08124
0.07874
0.06374
0.06374
0.10374
0.07874
0.0575
0.12125
0.07874
0.0575
0.08124
0.0575
0.12125
0.0575
0.08124
0.12125
0.06374
0.0575
0.10374
0.08124
0.06374
0.06374
0.10374
0.07874
0.0575
0.10374
0.06374
0.10374
0.07874
0.07874
0.06374
0.08124
0.0575
0.07874
0.12125
0.06374
0.12125
0.08124
0.10374
0.10374
0.0575
0.0575
0.06374
0.10374
0.07874
0.07874
0.06374
0.10374
0.06374
0.07874
0.10374
0.07874
0.10374
0.10374
0.07874
0.08124
0.10374
0.0575
0.06374
0.07874
0.10374
0.1225
0.1225
0.1225
0.09375
0.09375
0.035
0.1225
0.02624
0.09375
0.09375
0.1225
0.035
0.035
0.035
0.02624
0.02624
0.02624
0.09375
0.04749
0.04749
0.04749
0.035
0.09499
0.09499
0.02624
0.1225
0.1225
0.1225
0.09375
0.09375
0.035
0.09499
0.02624
0.1225
0.04749
0.035
0.09375
0.04749
0.09499
0.09375
0.1225
0.09375
0.035
0.1225
0.0825
0.0825
0.1225
0.09375
0.0575
0.02624
0.09499
0.09499
0.09375
0.04749
0.0575
0.035
0.02624
0.06125
0.035
0.06125
0.09499
0.06125
0.09499
0.06125
0.02624
0.04749
0.04749
0.09499
0.09499
0.09499
0.09375
0.09375
0.09375
0.0825
0.0575
0.04749
0.035
0.06125
0.09499
0.02624
0.1225
0.06125
0.09375
0.035
0.02624
0.09499
0.04749
0.09375
0.09375
0.0825
0.02624
0.09499
0.0575
0.0825
0.0575
0.04749
0.06125
0.04749
0.09499
0.06125
0.06125
0.09499
0.09499
0.035
0.09499
0.1225
0.02624
0.09375
0.09375
0.04749
0.09375
0.09499
0.0825
0.0825
0.09375
0.0825
0.09499
0.0575
0.09375
0.06125
0.0825
0.0575
0.09499
0.06125
0.06125
0.0575
0.06125
0.09499
0.09499
0.06125
0.06125
0.0575
0.09375
0.06125
0.09499
0.035
0.06125
0.0825
0.02624
0.0575
0.04749
0.06125
0.06125
0.06125
0.09499
0.09375
0.09499
0.0825
0.09375
0.09499
0.0575
0.09499
0.09375
0.06125
0.09375
0.0825
0.06125
0.0575
0.0825
0.0825
0.0575
0.0575
0.06125
0.06125
0.06125
0.06125
0.06125
0.06125
0.03999
0.03999
0.03999
0.01999
0.01999
0.01999
0.035
0.03999
0.04749
0.01999
0.02749
0.03999
0.00249
0.03999
0.01999
0.03999
0.01999
0.03999
0.035
0.04749
0.03999
0.035
0.03999
0.01999
0.04749
0.035
0.01999
0.01999
0.035
0.04749
0.035
0.02749
0.03999
0.03999
0.035
0.035
0.01999
0.03999
0.03999
0.035
0.04749
0.02749
0.04749
0.04749
0.00249
0.01999
0.00249
0.02749
0.04749
0.00249
0.02749
0.02749
0.01999
0.01999
0.00249
0.02749
0.035
0.035
0.00249
0.02749
0.04749
0.00249
0.035
0.00249
0.04749
0.04749
0.04749
0.02749
0.02749
0.00249
0.00249
0.035
0.04749
0.02749
0.00249
0.02749
0.02749
0.00249
0.01999
0.035
0.04749
0.02749
0.00249
0.00249
0.00499
0.00499
0.02374
0.04874
0.06125
0.00499
0.03875
0.00999
0.02374
0.04874
0.06125
0.00499
0.00499
0.02374
0.02374
0.00499
0.04874
0.04874
0.06125
0.06125
0.02374
0.03875
0.04874
0.00999
0.06125
0.03875
0.00999
0.03875
0.00499
0.00999
0.00499
0.02374
0.04874
0.03875
0.06125
0.00999
0.03875
0.00999
0.00499
0.00499
0.02374
0.02374
0.04874
0.04874
0.06125
0.06125
0.03875
0.03875
0.00999
0.00999
0.02374
0.00499
0.04874
0.06125
0.02374
0.03875
0.04874
0.06125
0.00999
0.03875
0.00499
0.02374
0.00999
0.00499
0.04874
0.02374
0.06125
0.04874
0.02374
0.03875
0.06125
0.00499
0.03875
0.02374
0.00999
0.00999
0.04874
0.06125
0.03875
0.00999
0.04874
0.06125
0.03875
0.00999
0.00249
0.00249
-0.01875
0.00249
0.00249
-0.00999
-0.01875
0.
-0.00999
0.025
0.00249
0.
0.025
-0.01875
0.05999
0.00249
-0.01875
-0.01875
-0.01875
0.00249
-0.00999
-0.00999
-0.01875
0.00249
0.05999
0.00249
0.
0.00249
0.00249
0.025
-0.01875
-0.00999
-0.01875
0.
-0.01875
-0.00999
-0.01875
0.00249
0.025
0.05999
0.05999
-0.01875
0.00249
-0.00999
0.00249
-0.00999
0.
0.
0.
0.025
0.
-0.00999
-0.00999
0.025
0.05999
0.
0.
0.05999
0.025
0.025
0.05999
-0.00999
0.05999
0.025
-0.01875
-0.01875
-0.00999
0.025
-0.00999
0.
0.
0.025
0.025
0.05999
0.05999
0.05999
0.05999
0.
0.025
0.05999
-0.00999
0.
0.025
0.05999
0.07999
0.07999
0.0625
0.0625
0.05999
0.05999
0.0575
0.04625
0.035
0.07999
0.0575
0.04625
0.035
0.07999
0.07999
0.0625
0.0625
0.0625
0.07999
0.05999
0.07999
0.0575
0.0625
0.04625
0.07999
0.0625
0.035
0.05999
0.07999
0.0575
0.0625
0.04625
0.00875
0.07999
0.0625
0.0625
0.05999
0.07999
0.0575
0.05999
0.00875
0.0625
0.00499
0.035
0.07999
0.05999
0.00499
0.0625
0.05999
0.0575
0.05999
0.05999
0.04625
0.00875
0.04625
-0.01125
0.035
0.00499
0.035
-0.00499
-0.01125
0.0575
-0.00999
-0.00499
0.04625
0.00875
-0.00999
-0.01125
0.035
0.01125
-0.00499
0.0575
0.00875
0.07999
0.0575
0.04625
0.05999
0.07999
0.01125
0.0625
0.00499
0.05999
-0.00999
0.0575
0.00875
0.01125
0.04625
0.00499
0.035
-0.01125
-0.00499
-0.00999
0.04625
0.035
0.00875
0.01125
0.0575
0.035
0.00499
0.0575
0.04625
-0.01125
0.0625
0.00875
0.035
-0.01125
0.00875
-0.00499
0.00499
0.00499
0.00875
-0.01125
0.00875
0.00499
-0.01125
-0.00499
0.00499
-0.01125
-0.00999
-0.01125
-0.00499
0.05999
-0.00999
0.01125
-0.00499
-0.00999
0.01125
0.00499
0.01125
-0.00499
-0.01125
-0.00499
0.05999
-0.00499
-0.00999
0.0575
-0.00999
0.01125
0.0575
0.01125
0.04625
0.04625
0.035
-0.00999
0.01125
0.00875
0.00499
0.035
-0.01125
0.04625
0.035
-0.00499
0.00875
-0.00999
0.00499
0.00875
-0.01125
0.00499
-0.00999
-0.00499
0.01125
-0.01125
-0.00999
-0.00499
0.01125
0.01125
-0.00999
0.01125
-0.00999
-0.00749
-0.03125
-0.00999
-0.03249
-0.00749
-0.025
-0.03125
-0.03249
-0.00999
-0.00999
-0.00749
-0.00749
-0.00999
-0.03125
-0.00999
-0.00749
-0.03249
-0.00999
-0.00999
-0.025
-0.00749
-0.00749
-0.025
-0.00999
-0.03125
-0.00999
-0.00999
-0.00999
-0.00999
-0.00749
-0.00749
-0.03125
-0.00999
-0.00749
-0.03125
-0.03249
-0.03249
-0.03249
-0.025
-0.025
-0.025
-0.00999
-0.00999
-0.00999
-0.03125
-0.00999
-0.03125
-0.03125
-0.00749
-0.03249
-0.03249
-0.025
-0.03125
-0.025
-0.00999
-0.03249
-0.00999
-0.03249
-0.025
-0.025
-0.00999
-0.00999
-0.00999
-0.00749
-0.03125
-0.00999
-0.03249
-0.03125
-0.00749
-0.025
-0.03249
-0.03125
-0.00999
-0.03249
-0.025
-0.025
-0.00999
-0.00749
-0.00999
-0.03125
-0.03249
-0.025
-0.00999
0.00499
-0.00124
-0.00625
-0.03125
0.00499
-0.00124
-0.02749
-0.045
0.00499
-0.00124
-0.00625
0.00499
-0.03125
0.00499
0.00499
-0.00124
0.00499
-0.00625
-0.00124
0.00499
0.00499
-0.03125
-0.00625
-0.00124
-0.00124
-0.02749
0.00499
-0.03125
-0.045
-0.00625
-0.02749
-0.00124
-0.02749
-0.045
-0.03125
-0.00625
-0.045
-0.02749
0.00499
-0.00625
-0.00124
-0.00124
-0.00625
-0.03125
-0.03125
-0.02749
0.00499
-0.02749
-0.045
-0.045
0.00499
-0.045
-0.00124
0.00499
-0.00625
-0.00124
-0.03125
-0.02749
-0.00625
-0.045
-0.03125
-0.02749
-0.00124
-0.00625
-0.03125
-0.00625
-0.00625
-0.02749
-0.03125
-0.045
-0.02749
-0.045
-0.03125
-0.045
-0.03125
-0.02749
-0.02749
-0.045
-0.045
-0.00124
-0.00625
-0.03125
-0.02749
-0.045
-0.04625
-0.04625
-0.02125
0.00875
-0.04625
-0.02125
-0.02125
-0.04625
0.00875
0.00875
0.03999
0.03999
-0.04625
-0.04625
-0.04625
-0.02125
-0.02125
-0.02125
0.00875
0.00875
0.045
0.03999
0.03999
0.05499
0.045
0.05499
-0.04625
-0.02125
-0.04625
0.00875
-0.02125
-0.02125
-0.04625
0.00875
-0.02125
0.00875
0.03999
0.03999
0.045
0.03999
0.045
0.045
0.045
0.05499
0.05499
0.00875
0.05499
0.045
0.05499
0.05499
0.00875
0.03999
0.03999
0.045
0.03999
0.045
0.05499
0.045
0.05499
0.05499
-0.04625
-0.02125
-0.04625
-0.04625
-0.02125
-0.02125
0.00875
0.00875
0.03999
0.03999
0.045
0.05499
0.00875
0.03999
-0.04625
0.045
-0.02125
0.05499
0.00875
0.03999
0.045
0.05499
0.045
0.05499
0.045
0.03875
0.045
0.03125
0.0375
0.08749
0.045
0.10625
0.045
0.03875
0.045
0.03125
0.03875
0.045
0.045
0.03125
0.03875
0.03875
0.0375
0.03125
0.045
0.0375
0.03875
0.045
0.08749
0.03125
0.03875
0.0375
0.10625
0.03125
0.08749
0.045
0.045
0.045
0.03875
0.03875
0.03875
0.03125
0.03125
0.0375
0.08749
0.0375
0.08749
0.03125
0.10625
0.10625
0.08749
0.0375
0.045
0.10625
0.0375
0.08749
0.08749
0.10625
0.1075
0.03125
0.1075
0.03875
0.0375
0.07249
0.03125
0.10625
0.0375
0.10625
0.08749
0.10625
0.1075
0.08749
0.1075
0.10625
0.07249
0.1075
0.0575
0.05124
0.07249
0.04874
0.0575
0.05249
0.05124
0.04874
0.05249
0.03875
0.03125
0.045
0.0375
0.1075
0.1075
0.08749
0.10625
0.03875
0.03125
0.07249
0.0575
0.1075
0.07249
0.05124
0.07249
0.0575
0.04874
0.0575
0.0375
0.03875
0.07249
0.05124
0.07249
0.03125
0.05249
0.0575
0.04874
0.0375
0.0375
0.05249
0.08749
0.0575
0.0575
0.05124
0.05124
0.04874
0.04874
0.1075
0.05249
0.05249
0.10625
0.1075
0.07249
0.05124
0.0575
0.08749
0.04874
0.05124
0.04874
0.10625
0.1075
0.05249
0.05249
0.07249
0.07249
0.0575
0.0575
0.1075
0.05124
0.05124
0.05124
0.1075
0.07249
0.04874
0.07249
0.05249
0.04874
0.0575
0.0575
0.05249
0.04874
0.05124
0.05249
0.04874
0.05124
0.05249
0.04874
0.08749
0.05249
0.10625
0.1075
0.07249
0.0575
0.05124
0.04874
0.05249
0.05874
0.0775
0.05874
0.10499
0.05874
0.10499
0.0775
0.1
0.10499
0.08624
0.05874
0.10499
0.1
0.05874
0.0775
0.05874
0.10499
0.05874
0.0775
0.0775
0.10499
0.10499
0.10499
0.10499
0.1
0.05874
0.08624
0.05874
0.0775
0.0775
0.10499
0.05874
0.10499
0.08624
0.0775
0.05874
0.10499
0.10499
0.0775
0.05874
0.10499
0.0775
0.0775
0.10499
0.10499
0.10499
0.1
0.0775
0.1
0.10499
0.08624
0.1
0.08624
0.05874
0.1
0.0775
0.08624
0.10499
0.08624
0.10499
0.10499
0.10499
0.1
0.10499
0.1
0.10499
0.08624
0.10499
0.1
0.10499
0.1
0.1
0.08624
0.08624
0.08624
0.05874
0.1
0.08624
0.0775
0.08624
0.10499
0.10499
0.1
0.08624
0.08749
0.08749
0.09375
0.08749
0.08749
0.08624
0.09375
0.09375
0.08624
0.0625
0.0625
0.06125
0.06125
0.08749
0.08749
0.09375
0.08749
0.08749
0.08624
0.09375
0.09375
0.08749
0.08624
0.09375
0.08624
0.08624
0.08624
0.0625
0.0625
0.06125
0.05124
0.06125
0.05124
0.0625
0.0625
0.09375
0.06125
0.0625
0.08624
0.09375
0.0625
0.05124
0.05124
0.08749
0.06125
0.06125
0.05124
0.09375
0.08749
0.08624
0.05124
0.08624
0.06125
0.05124
0.05124
0.0625
0.08749
0.06125
0.0625
0.09375
0.05124
0.06125
0.09375
0.05124
0.08624
0.08624
0.0625
0.08749
0.0625
0.09375
0.08749
0.06125
0.08624
0.05124
0.0625
0.06125
0.06125
0.09375
0.05124
0.08624
0.05124
0.0625
0.06125
0.05124
0.03624
0.03624
0.03875
0.03624
0.03875
0.03249
0.03624
0.03249
0.03875
0.01499
0.03624
0.
0.03875
0.03624
0.03875
0.03624
0.03624
0.03875
0.03624
0.03875
0.03249
0.03249
0.01499
0.03249
0.03624
0.01499
0.03875
0.
0.
0.03875
0.03875
0.03875
0.03249
0.03249
0.01499
0.01499
0.03624
0.03875
0.03249
0.03875
0.03624
0.03249
0.03249
0.01499
0.03875
0.
0.01499
0.03875
0.03624
0.
0.
0.01499
0.01499
0.03249
0.03875
0.
0.
0.03875
0.03875
0.03875
0.01499
0.03249
0.
0.03875
0.03875
0.01499
0.
0.
0.01499
0.03624
0.03875
0.03875
0.
0.03249
0.03875
0.01499
0.03875
0.03875
0.
0.03249
0.03875
0.01499
0.
0.03875
0.05624
0.05624
0.02875
0.05624
-0.00249
0.02875
0.
-0.00249
0.02624
0.
0.03999
0.02624
0.03999
0.05624
0.02875
0.05624
-0.00249
0.02875
-0.00249
0.05624
0.
0.03624
0.02875
0.05624
0.
0.05624
0.0575
-0.00249
0.05624
0.02624
0.03624
0.02875
0.02875
0.02875
-0.00249
-0.00249
-0.00249
0.05624
0.02875
0.
0.02624
0.02875
-0.00249
0.02624
0.03999
0.
0.02624
0.05624
0.03999
0.02875
0.05624
0.03624
-0.00249
0.0575
0.05624
0.
0.
0.03999
0.
-0.00249
0.02624
0.02624
0.
0.03999
0.05624
0.
0.08124
0.03624
0.02624
0.0575
0.03624
0.0575
0.05624
0.02624
0.02624
0.05624
0.02875
0.03999
0.05874
0.03999
0.03999
0.03999
0.05624
0.02875
0.02875
0.05624
-0.00249
0.03624
0.05124
0.
0.03624
-0.00249
0.03999
0.08124
0.
0.05874
-0.00249
0.03624
0.08124
0.
0.03624
0.05124
0.0575
0.03624
0.05874
0.02624
0.0575
0.05124
0.03999
0.05624
0.0575
0.02624
0.08124
0.05624
0.03999
0.0575
0.05874
0.08124
0.05624
0.05124
0.05874
0.08124
0.05124
0.05874
0.03624
0.0575
0.05124
0.0575
0.05624
0.08124
0.08124
0.05874
0.05874
0.05624
0.05124
0.05124
0.08124
0.0575
0.05624
0.05624
0.08124
0.08124
0.05874
0.05874
0.05124
0.03624
0.05124
0.0575
0.03624
0.02624
0.05624
0.0575
0.03999
0.08124
0.05874
0.05624
0.05124
0.08124
0.03624
0.05874
0.05874
0.0575
0.05124
0.05624
0.08124
0.05874
0.05124
0.05124
0.01999
0.01999
0.05624
0.01999
0.05624
0.01999
0.02999
0.05624
0.01999
0.01999
0.02999
0.05624
0.02999
0.01999
-0.00999
0.05624
-0.0575
0.01999
-0.04125
0.01999
0.02999
0.05624
-0.00999
0.01999
0.02999
0.05624
0.05624
0.02999
0.05624
-0.00999
0.05624
-0.0575
0.02999
0.02999
-0.00999
-0.00999
-0.0575
-0.00999
-0.00999
0.01999
-0.0575
0.01999
-0.04125
0.05624
0.01999
-0.0575
-0.0575
-0.00999
0.05624
-0.04125
-0.04125
-0.0575
0.02999
-0.04125
0.02999
-0.00999
-0.00999
-0.0575
0.02999
-0.04125
-0.04125
-0.00999
-0.0575
0.02999
-0.04125
-0.04125
0.01999
-0.0575
-0.0575
0.05624
-0.04125
-0.04125
0.02999
-0.00999
-0.00999
-0.0575
0.05624
-0.0575
-0.04125
0.02999
-0.04125
-0.00999
-0.0575
-0.04125
-0.03249
-0.02875
-0.03249
-0.04625
-0.03249
-0.02875
-0.03125
-0.04625
-0.02875
0.00124
-0.03125
-0.04625
0.00875
-0.03125
0.00124
-0.03249
-0.02875
0.00875
-0.03249
-0.04625
-0.03125
-0.03249
0.00124
-0.03249
-0.02875
0.00875
-0.04625
-0.02875
-0.03125
-0.04625
-0.03249
-0.03125
0.00124
0.00124
-0.03249
0.00124
0.00875
-0.03249
-0.03249
-0.02875
-0.03249
-0.02875
-0.04625
-0.02875
-0.04625
-0.02875
-0.03125
0.00875
0.00875
-0.04625
0.00124
-0.03125
-0.02875
-0.03249
0.00875
-0.04625
-0.02875
0.00124
-0.03125
-0.04625
0.00124
0.00875
-0.03249
-0.03125
0.00875
-0.04625
-0.02875
-0.03125
-0.04625
0.00124
-0.03125
0.00124
0.00875
0.00875
-0.03125
0.00124
0.00124
0.00875
0.00875
-0.02875
-0.04625
-0.03125
0.00124
0.00875
-0.00374
-0.00374
-0.00499
-0.00499
-0.01999
-0.01999
-0.04874
-0.04374
-0.0625
-0.00374
-0.00374
-0.00374
-0.00499
-0.00374
-0.00499
-0.00499
-0.01999
-0.04874
-0.01999
-0.04874
-0.04874
-0.04374
-0.04374
-0.0625
-0.0625
-0.00374
-0.00499
-0.00374
-0.00499
-0.01999
-0.04874
-0.01999
-0.04874
-0.01999
-0.04874
-0.04374
-0.04374
-0.0625
-0.0625
-0.00374
-0.00374
-0.00499
-0.00499
-0.01999
-0.04874
-0.01999
-0.04374
-0.00374
-0.04874
-0.0625
-0.00374
-0.00499
-0.04374
-0.0625
-0.01999
-0.04874
-0.04374
-0.0625
-0.04374
-0.00374
-0.00499
-0.00499
-0.04374
-0.0625
-0.0625
-0.01999
-0.01999
-0.00499
-0.04874
-0.04874
-0.01999
-0.04374
-0.04374
-0.00374
-0.0625
-0.0625
-0.04874
-0.00499
-0.04374
-0.01999
-0.0625
-0.04874
-0.04374
-0.0625
-0.04874
-0.04874
-0.0125
-0.04874
-0.04874
0.02125
-0.0125
-0.04874
-0.04874
-0.04874
0.01624
-0.0125
0.00374
0.02125
-0.04874
-0.00999
0.01624
-0.04874
0.00374
-0.0125
-0.00999
0.02125
0.
0.01624
-0.04874
-0.0125
-0.04874
-0.0125
0.02125
-0.04874
-0.0125
0.02125
0.02125
-0.0125
0.02125
0.01624
0.00625
0.01624
-0.04874
0.00374
0.00374
-0.025
-0.0125
-0.00999
-0.02999
0.02125
-0.00999
0.00374
-0.02875
0.
-0.0125
-0.0125
0.
0.02125
0.02125
0.01624
0.01624
0.00374
0.01624
-0.00999
-0.00999
0.01624
0.00374
0.
-0.0125
0.00625
0.
-0.025
0.00625
0.00625
-0.02999
-0.025
-0.04874
-0.02875
0.01624
-0.0125
0.00374
-0.025
-0.02999
-0.0125
0.00374
0.
0.02125
0.00625
-0.0125
-0.02875
-0.025
0.00374
0.02125
-0.00999
0.00625
0.01624
-0.0125
-0.02999
-0.00999
0.02125
-0.02875
0.02125
0.01624
-0.0125
0.
0.01624
0.00374
-0.00999
0.00625
-0.00999
0.01624
-0.025
0.00374
-0.00999
-0.0125
-0.02999
0.
-0.025
0.00374
0.00374
0.
-0.02999
-0.00999
-0.02999
0.
-0.02875
0.00625
-0.0125
0.
-0.025
-0.00999
0.00625
-0.02875
0.00625
-0.02999
0.00625
-0.00999
-0.025
-0.02875
-0.02875
-0.02999
0.
-0.0125
-0.025
-0.02999
-0.02875
0.
-0.0125
0.00625
0.
-0.025
-0.025
0.00625
-0.0125
-0.02999
-0.025
-0.0125
0.00625
-0.02999
-0.02875
-0.025
-0.02999
-0.0125
-0.02999
-0.02875
-0.02875
-0.0125
-0.02875
-0.0125
-0.02875
-0.0125
-0.0125
0.03249
0.03249
0.035
0.035
0.03249
0.03375
0.035
0.03375
0.03375
0.03249
0.03875
0.03875
0.04125
0.04125
0.03249
0.0425
0.03249
0.035
0.035
0.03375
0.03375
0.03875
0.03249
0.03249
0.03249
0.0425
0.035
0.03249
0.03875
0.035
0.04125
0.03375
0.03249
0.0425
0.03875
0.035
0.03249
0.035
0.04125
0.03249
0.03375
0.035
0.0425
0.03875
0.04125
0.035
0.035
0.03375
0.03375
0.03875
0.03875
0.03375
0.04125
0.03375
0.03875
0.0425
0.03249
0.04125
0.04125
0.0425
0.03375
0.035
0.0425
0.04125
0.03875
0.03875
0.035
0.04125
0.04125
0.0425
0.0425
0.0425
0.03375
0.0425
0.03375
0.03875
0.03875
0.04125
0.0425
0.04125
0.0425
0.03875
0.04125
0.0425
0.04749
0.04874
0.04749
0.04749
0.04874
0.04125
0.03875
0.00249
0.04125
-0.02374
0.03875
0.04749
0.00249
0.04874
0.04125
0.04874
0.03875
0.04125
0.00249
0.03875
-0.02374
0.04749
0.04749
0.04874
0.04874
0.04125
0.04749
0.04749
0.04125
0.04749
0.04749
0.03875
0.04874
0.04874
0.04749
0.04874
0.00249
0.04125
0.04874
0.04749
0.04125
0.03875
0.04125
0.04874
0.03875
0.00249
-0.02374
0.03875
0.00249
0.00249
0.04125
0.00249
-0.02374
-0.02374
-0.02374
0.04749
0.04749
0.04125
0.03875
0.03875
0.04874
0.00249
0.04125
-0.02374
0.03875
0.00249
-0.02374
-0.02374
0.03875
-0.02374
0.00249
0.04874
-0.02374
0.00249
-0.02374
0.04874
0.04125
0.04125
0.03875
0.00249
0.03875
0.00249
-0.02374
-0.02374
-0.00249
-0.00249
-0.00249
-0.00249
-0.00374
-0.00249
-0.00374
-0.00374
-0.02125
-0.00374
-0.02999
-0.02125
-0.04625
-0.02999
-0.04625
-0.00374
-0.00374
-0.00249
-0.00374
-0.00374
-0.00374
-0.02125
-0.00374
-0.02999
-0.04625
-0.00249
-0.02125
-0.00249
-0.00374
-0.00249
-0.00249
-0.00374
-0.00374
-0.02125
-0.00374
-0.00374
-0.00374
-0.00374
-0.00249
-0.02125
-0.00374
-0.02999
-0.02125
-0.00249
-0.02125
-0.02999
-0.02999
-0.00249
-0.00374
-0.04625
-0.00374
-0.04625
-0.02999
-0.00374
-0.00374
-0.04625
-0.00374
-0.02125
-0.00374
-0.02125
-0.02125
-0.02999
-0.02999
-0.04625
-0.04625
-0.02999
-0.00249
-0.04625
-0.02999
-0.00374
-0.04625
-0.00374
-0.00374
-0.02125
-0.02125
-0.02999
-0.04625
-0.02999
-0.04625
-0.00374
-0.04625
-0.02125
-0.02999
-0.04625
-0.0625
-0.08749
-0.07999
-0.0825
-0.0625
-0.05624
-0.08749
-0.03999
-0.0625
-0.07999
-0.08749
-0.0625
-0.08749
-0.0625
-0.0625
-0.08749
-0.0625
-0.07999
-0.0825
-0.08749
-0.05624
-0.07999
-0.03999
-0.0825
-0.05624
-0.03999
-0.02749
-0.02374
-0.03249
-0.04625
-0.02749
-0.02875
-0.01624
-0.02374
-0.03249
-0.04625
-0.0625
-0.0625
-0.0625
-0.0625
-0.08749
-0.0625
-0.08749
-0.07999
-0.08749
-0.07999
-0.07999
-0.0825
-0.08749
-0.0825
-0.0825
-0.07999
-0.02749
-0.0825
-0.02875
-0.02374
-0.05624
-0.01624
-0.08749
-0.03999
-0.08749
-0.07999
-0.05624
-0.07999
-0.0625
-0.05624
-0.03999
-0.0825
-0.08749
-0.03999
-0.05624
-0.03999
-0.05624
